# OpenSignals Text File Format. Version 1
# {"00:21:06:BE:16:87": {"position": 0, "device": "bitalino_rev", "device name": "00:21:06:BE:16:87", "device connection": "BTH00:21:06:BE:16:87", "sampling rate": 1000, "resolution": [4, 1, 1, 1, 1, 10], "firmware version": 1282, "comments": "", "keywords": "", "mode": 0, "sync interval": 2, "date": "2026-4-23", "time": "11:50:11.919", "channels": [1], "sensor": ["ECGBIT"], "label": ["A1"], "column": ["nSeq", "I1", "I2", "O1", "O2", "A1"], "special": [{}], "digital IO": [0, 0, 1, 1]}}
# EndOfHeader
0	0	0	0	0	526	
1	0	0	0	0	525	
2	0	0	0	0	524	
3	0	0	0	0	523	
4	0	0	0	0	522	
5	0	0	0	0	520	
6	0	0	0	0	518	
7	0	0	0	0	517	
8	0	0	0	0	516	
9	0	0	0	0	515	
10	0	0	0	0	513	
11	0	0	0	0	513	
12	0	0	0	0	512	
13	0	0	0	0	511	
14	0	0	0	0	511	
15	0	0	0	0	511	
0	0	0	0	0	511	
1	0	0	0	0	510	
2	0	0	0	0	511	
3	0	0	0	0	510	
4	0	0	0	0	510	
5	0	0	0	0	510	
6	0	0	0	0	510	
7	0	0	0	0	509	
8	0	0	0	0	508	
9	0	0	0	0	507	
10	0	0	0	0	506	
11	0	0	0	0	505	
12	0	0	0	0	504	
13	0	0	0	0	504	
14	0	0	0	0	504	
15	0	0	0	0	503	
0	0	0	0	0	503	
1	0	0	0	0	501	
2	0	0	0	0	501	
3	0	0	0	0	501	
4	0	0	0	0	500	
5	0	0	0	0	500	
6	0	0	0	0	500	
7	0	0	0	0	501	
8	0	0	0	0	500	
9	0	0	0	0	500	
10	0	0	0	0	500	
11	0	0	0	0	499	
12	0	0	0	0	499	
13	0	0	0	0	499	
14	0	0	0	0	498	
15	0	0	0	0	497	
0	0	0	0	0	497	
1	0	0	0	0	496	
2	0	0	0	0	495	
3	0	0	0	0	495	
4	0	0	0	0	494	
5	0	0	0	0	494	
6	0	0	0	0	495	
7	0	0	0	0	495	
8	0	0	0	0	495	
9	0	0	0	0	496	
10	0	0	0	0	495	
11	0	0	0	0	495	
12	0	0	0	0	494	
13	0	0	0	0	494	
14	0	0	0	0	494	
15	0	0	0	0	494	
0	0	0	0	0	494	
1	0	0	0	0	494	
2	0	0	0	0	495	
3	0	0	0	0	495	
4	0	0	0	0	495	
5	0	0	0	0	495	
6	0	0	0	0	495	
7	0	0	0	0	495	
8	0	0	0	0	495	
9	0	0	0	0	496	
10	0	0	0	0	496	
11	0	0	0	0	497	
12	0	0	0	0	498	
13	0	0	0	0	499	
14	0	0	0	0	499	
15	0	0	0	0	499	
0	0	0	0	0	499	
1	0	0	0	0	499	
2	0	0	0	0	499	
3	0	0	0	0	499	
4	0	0	0	0	499	
5	0	0	0	0	499	
6	0	0	0	0	500	
7	0	0	0	0	500	
8	0	0	0	0	500	
9	0	0	0	0	499	
10	0	0	0	0	499	
11	0	0	0	0	500	
12	0	0	0	0	500	
13	0	0	0	0	500	
14	0	0	0	0	501	
15	0	0	0	0	502	
0	0	0	0	0	503	
1	0	0	0	0	503	
2	0	0	0	0	504	
3	0	0	0	0	504	
4	0	0	0	0	504	
5	0	0	0	0	505	
6	0	0	0	0	505	
7	0	0	0	0	504	
8	0	0	0	0	504	
9	0	0	0	0	504	
10	0	0	0	0	503	
11	0	0	0	0	503	
12	0	0	0	0	503	
13	0	0	0	0	503	
14	0	0	0	0	503	
15	0	0	0	0	502	
0	0	0	0	0	503	
1	0	0	0	0	503	
2	0	0	0	0	503	
3	0	0	0	0	503	
4	0	0	0	0	503	
5	0	0	0	0	503	
6	0	0	0	0	503	
7	0	0	0	0	503	
8	0	0	0	0	502	
9	0	0	0	0	502	
10	0	0	0	0	502	
11	0	0	0	0	500	
12	0	0	0	0	499	
13	0	0	0	0	497	
14	0	0	0	0	494	
15	0	0	0	0	492	
0	0	0	0	0	489	
1	0	0	0	0	486	
2	0	0	0	0	483	
3	0	0	0	0	481	
4	0	0	0	0	480	
5	0	0	0	0	478	
6	0	0	0	0	478	
7	0	0	0	0	477	
8	0	0	0	0	477	
9	0	0	0	0	477	
10	0	0	0	0	478	
11	0	0	0	0	477	
12	0	0	0	0	478	
13	0	0	0	0	479	
14	0	0	0	0	479	
15	0	0	0	0	479	
0	0	0	0	0	480	
1	0	0	0	0	480	
2	0	0	0	0	480	
3	0	0	0	0	480	
4	0	0	0	0	480	
5	0	0	0	0	478	
6	0	0	0	0	476	
7	0	0	0	0	474	
8	0	0	0	0	473	
9	0	0	0	0	472	
10	0	0	0	0	472	
11	0	0	0	0	471	
12	0	0	0	0	471	
13	0	0	0	0	469	
14	0	0	0	0	467	
15	0	0	0	0	466	
0	0	0	0	0	463	
1	0	0	0	0	461	
2	0	0	0	0	459	
3	0	0	0	0	456	
4	0	0	0	0	455	
5	0	0	0	0	452	
6	0	0	0	0	450	
7	0	0	0	0	449	
8	0	0	0	0	448	
9	0	0	0	0	448	
10	0	0	0	0	447	
11	0	0	0	0	446	
12	0	0	0	0	447	
13	0	0	0	0	448	
14	0	0	0	0	449	
15	0	0	0	0	450	
0	0	0	0	0	452	
1	0	0	0	0	454	
2	0	0	0	0	456	
3	0	0	0	0	459	
4	0	0	0	0	462	
5	0	0	0	0	464	
6	0	0	0	0	468	
7	0	0	0	0	472	
8	0	0	0	0	476	
9	0	0	0	0	480	
10	0	0	0	0	484	
11	0	0	0	0	489	
12	0	0	0	0	493	
13	0	0	0	0	497	
14	0	0	0	0	499	
15	0	0	0	0	503	
0	0	0	0	0	506	
1	0	0	0	0	510	
2	0	0	0	0	512	
3	0	0	0	0	515	
4	0	0	0	0	518	
5	0	0	0	0	521	
6	0	0	0	0	523	
7	0	0	0	0	525	
8	0	0	0	0	527	
9	0	0	0	0	529	
10	0	0	0	0	530	
11	0	0	0	0	532	
12	0	0	0	0	532	
13	0	0	0	0	533	
14	0	0	0	0	534	
15	0	0	0	0	534	
0	0	0	0	0	534	
1	0	0	0	0	535	
2	0	0	0	0	534	
3	0	0	0	0	535	
4	0	0	0	0	535	
5	0	0	0	0	536	
6	0	0	0	0	536	
7	0	0	0	0	536	
8	0	0	0	0	537	
9	0	0	0	0	537	
10	0	0	0	0	538	
11	0	0	0	0	537	
12	0	0	0	0	538	
13	0	0	0	0	538	
14	0	0	0	0	537	
15	0	0	0	0	536	
0	0	0	0	0	536	
1	0	0	0	0	535	
2	0	0	0	0	534	
3	0	0	0	0	533	
4	0	0	0	0	533	
5	0	0	0	0	533	
6	0	0	0	0	532	
7	0	0	0	0	531	
8	0	0	0	0	531	
9	0	0	0	0	530	
10	0	0	0	0	531	
11	0	0	0	0	531	
12	0	0	0	0	530	
13	0	0	0	0	531	
14	0	0	0	0	531	
15	0	0	0	0	531	
0	0	0	0	0	531	
1	0	0	0	0	531	
2	0	0	0	0	531	
3	0	0	0	0	532	
4	0	0	0	0	532	
5	0	0	0	0	532	
6	0	0	0	0	532	
7	0	0	0	0	534	
8	0	0	0	0	534	
9	0	0	0	0	536	
10	0	0	0	0	538	
11	0	0	0	0	541	
12	0	0	0	0	543	
13	0	0	0	0	546	
14	0	0	0	0	550	
15	0	0	0	0	553	
0	0	0	0	0	558	
1	0	0	0	0	564	
2	0	0	0	0	569	
3	0	0	0	0	574	
4	0	0	0	0	577	
5	0	0	0	0	577	
6	0	0	0	0	575	
7	0	0	0	0	568	
8	0	0	0	0	558	
9	0	0	0	0	545	
10	0	0	0	0	528	
11	0	0	0	0	510	
12	0	0	0	0	489	
13	0	0	0	0	468	
14	0	0	0	0	444	
15	0	0	0	0	419	
0	0	0	0	0	394	
1	0	0	0	0	368	
2	0	0	0	0	340	
3	0	0	0	0	310	
4	0	0	0	0	279	
5	0	0	0	0	246	
6	0	0	0	0	212	
7	0	0	0	0	179	
8	0	0	0	0	143	
9	0	0	0	0	105	
10	0	0	0	0	65	
11	0	0	0	0	23	
12	0	0	0	0	0	
13	0	0	0	0	0	
14	0	0	0	0	0	
15	0	0	0	0	0	
0	0	0	0	0	0	
1	0	0	0	0	0	
2	0	0	0	0	0	
3	0	0	0	0	0	
4	0	0	0	0	0	
5	0	0	0	0	0	
6	0	0	0	0	0	
7	0	0	0	0	0	
8	0	0	0	0	0	
9	0	0	0	0	0	
10	0	0	0	0	38	
11	0	0	0	0	95	
12	0	0	0	0	147	
13	0	0	0	0	196	
14	0	0	0	0	246	
15	0	0	0	0	296	
0	0	0	0	0	345	
1	0	0	0	0	391	
2	0	0	0	0	434	
3	0	0	0	0	474	
4	0	0	0	0	509	
5	0	0	0	0	541	
6	0	0	0	0	568	
7	0	0	0	0	590	
8	0	0	0	0	605	
9	0	0	0	0	619	
10	0	0	0	0	630	
11	0	0	0	0	640	
12	0	0	0	0	649	
13	0	0	0	0	658	
14	0	0	0	0	667	
15	0	0	0	0	675	
0	0	0	0	0	682	
1	0	0	0	0	686	
2	0	0	0	0	689	
3	0	0	0	0	691	
4	0	0	0	0	692	
5	0	0	0	0	690	
6	0	0	0	0	687	
7	0	0	0	0	683	
8	0	0	0	0	679	
9	0	0	0	0	677	
10	0	0	0	0	674	
11	0	0	0	0	671	
12	0	0	0	0	670	
13	0	0	0	0	669	
14	0	0	0	0	666	
15	0	0	0	0	663	
0	0	0	0	0	660	
1	0	0	0	0	659	
2	0	0	0	0	656	
3	0	0	0	0	655	
4	0	0	0	0	653	
5	0	0	0	0	652	
6	0	0	0	0	650	
7	0	0	0	0	648	
8	0	0	0	0	647	
9	0	0	0	0	646	
10	0	0	0	0	644	
11	0	0	0	0	643	
12	0	0	0	0	642	
13	0	0	0	0	641	
14	0	0	0	0	639	
15	0	0	0	0	638	
0	0	0	0	0	637	
1	0	0	0	0	636	
2	0	0	0	0	635	
3	0	0	0	0	635	
4	0	0	0	0	634	
5	0	0	0	0	632	
6	0	0	0	0	631	
7	0	0	0	0	630	
8	0	0	0	0	628	
9	0	0	0	0	627	
10	0	0	0	0	625	
11	0	0	0	0	624	
12	0	0	0	0	622	
13	0	0	0	0	620	
14	0	0	0	0	619	
15	0	0	0	0	617	
0	0	0	0	0	615	
1	0	0	0	0	614	
2	0	0	0	0	611	
3	0	0	0	0	609	
4	0	0	0	0	608	
5	0	0	0	0	607	
6	0	0	0	0	606	
7	0	0	0	0	605	
8	0	0	0	0	604	
9	0	0	0	0	603	
10	0	0	0	0	603	
11	0	0	0	0	602	
12	0	0	0	0	602	
13	0	0	0	0	601	
14	0	0	0	0	599	
15	0	0	0	0	597	
0	0	0	0	0	597	
1	0	0	0	0	595	
2	0	0	0	0	594	
3	0	0	0	0	593	
4	0	0	0	0	592	
5	0	0	0	0	590	
6	0	0	0	0	588	
7	0	0	0	0	587	
8	0	0	0	0	586	
9	0	0	0	0	585	
10	0	0	0	0	583	
11	0	0	0	0	581	
12	0	0	0	0	580	
13	0	0	0	0	580	
14	0	0	0	0	579	
15	0	0	0	0	578	
0	0	0	0	0	577	
1	0	0	0	0	576	
2	0	0	0	0	575	
3	0	0	0	0	573	
4	0	0	0	0	572	
5	0	0	0	0	571	
6	0	0	0	0	569	
7	0	0	0	0	568	
8	0	0	0	0	566	
9	0	0	0	0	564	
10	0	0	0	0	563	
11	0	0	0	0	561	
12	0	0	0	0	560	
13	0	0	0	0	558	
14	0	0	0	0	557	
15	0	0	0	0	556	
0	0	0	0	0	556	
1	0	0	0	0	555	
2	0	0	0	0	555	
3	0	0	0	0	554	
4	0	0	0	0	552	
5	0	0	0	0	551	
6	0	0	0	0	551	
7	0	0	0	0	550	
8	0	0	0	0	549	
9	0	0	0	0	547	
10	0	0	0	0	546	
11	0	0	0	0	544	
12	0	0	0	0	543	
13	0	0	0	0	543	
14	0	0	0	0	542	
15	0	0	0	0	542	
0	0	0	0	0	541	
1	0	0	0	0	541	
2	0	0	0	0	540	
3	0	0	0	0	540	
4	0	0	0	0	540	
5	0	0	0	0	540	
6	0	0	0	0	540	
7	0	0	0	0	538	
8	0	0	0	0	537	
9	0	0	0	0	537	
10	0	0	0	0	536	
11	0	0	0	0	536	
12	0	0	0	0	534	
13	0	0	0	0	533	
14	0	0	0	0	531	
15	0	0	0	0	529	
0	0	0	0	0	528	
1	0	0	0	0	527	
2	0	0	0	0	527	
3	0	0	0	0	526	
4	0	0	0	0	524	
5	0	0	0	0	523	
6	0	0	0	0	523	
7	0	0	0	0	523	
8	0	0	0	0	522	
9	0	0	0	0	521	
10	0	0	0	0	520	
11	0	0	0	0	519	
12	0	0	0	0	519	
13	0	0	0	0	518	
14	0	0	0	0	516	
15	0	0	0	0	515	
0	0	0	0	0	514	
1	0	0	0	0	513	
2	0	0	0	0	512	
3	0	0	0	0	510	
4	0	0	0	0	509	
5	0	0	0	0	508	
6	0	0	0	0	506	
7	0	0	0	0	505	
8	0	0	0	0	505	
9	0	0	0	0	504	
10	0	0	0	0	504	
11	0	0	0	0	502	
12	0	0	0	0	501	
13	0	0	0	0	500	
14	0	0	0	0	499	
15	0	0	0	0	498	
0	0	0	0	0	498	
1	0	0	0	0	497	
2	0	0	0	0	496	
3	0	0	0	0	495	
4	0	0	0	0	494	
5	0	0	0	0	493	
6	0	0	0	0	491	
7	0	0	0	0	490	
8	0	0	0	0	489	
9	0	0	0	0	487	
10	0	0	0	0	486	
11	0	0	0	0	485	
12	0	0	0	0	484	
13	0	0	0	0	484	
14	0	0	0	0	483	
15	0	0	0	0	483	
0	0	0	0	0	483	
1	0	0	0	0	483	
2	0	0	0	0	482	
3	0	0	0	0	483	
4	0	0	0	0	482	
5	0	0	0	0	482	
6	0	0	0	0	481	
7	0	0	0	0	481	
8	0	0	0	0	480	
9	0	0	0	0	479	
10	0	0	0	0	479	
11	0	0	0	0	479	
12	0	0	0	0	479	
13	0	0	0	0	479	
14	0	0	0	0	480	
15	0	0	0	0	480	
0	0	0	0	0	481	
1	0	0	0	0	481	
2	0	0	0	0	483	
3	0	0	0	0	484	
4	0	0	0	0	486	
5	0	0	0	0	487	
6	0	0	0	0	490	
7	0	0	0	0	492	
8	0	0	0	0	494	
9	0	0	0	0	496	
10	0	0	0	0	498	
11	0	0	0	0	499	
12	0	0	0	0	501	
13	0	0	0	0	503	
14	0	0	0	0	504	
15	0	0	0	0	505	
0	0	0	0	0	507	
1	0	0	0	0	508	
2	0	0	0	0	509	
3	0	0	0	0	510	
4	0	0	0	0	511	
5	0	0	0	0	512	
6	0	0	0	0	514	
7	0	0	0	0	515	
8	0	0	0	0	516	
9	0	0	0	0	518	
10	0	0	0	0	520	
11	0	0	0	0	522	
12	0	0	0	0	524	
13	0	0	0	0	526	
14	0	0	0	0	527	
15	0	0	0	0	528	
0	0	0	0	0	529	
1	0	0	0	0	529	
2	0	0	0	0	530	
3	0	0	0	0	531	
4	0	0	0	0	531	
5	0	0	0	0	532	
6	0	0	0	0	532	
7	0	0	0	0	533	
8	0	0	0	0	533	
9	0	0	0	0	532	
10	0	0	0	0	534	
11	0	0	0	0	534	
12	0	0	0	0	534	
13	0	0	0	0	535	
14	0	0	0	0	535	
15	0	0	0	0	536	
0	0	0	0	0	536	
1	0	0	0	0	536	
2	0	0	0	0	535	
3	0	0	0	0	534	
4	0	0	0	0	532	
5	0	0	0	0	532	
6	0	0	0	0	531	
7	0	0	0	0	531	
8	0	0	0	0	530	
9	0	0	0	0	530	
10	0	0	0	0	529	
11	0	0	0	0	529	
12	0	0	0	0	529	
13	0	0	0	0	528	
14	0	0	0	0	528	
15	0	0	0	0	529	
0	0	0	0	0	528	
1	0	0	0	0	528	
2	0	0	0	0	528	
3	0	0	0	0	528	
4	0	0	0	0	528	
5	0	0	0	0	528	
6	0	0	0	0	528	
7	0	0	0	0	527	
8	0	0	0	0	528	
9	0	0	0	0	527	
10	0	0	0	0	527	
11	0	0	0	0	527	
12	0	0	0	0	526	
13	0	0	0	0	525	
14	0	0	0	0	525	
15	0	0	0	0	524	
0	0	0	0	0	523	
1	0	0	0	0	521	
2	0	0	0	0	521	
3	0	0	0	0	522	
4	0	0	0	0	523	
5	0	0	0	0	522	
6	0	0	0	0	520	
7	0	0	0	0	519	
8	0	0	0	0	519	
9	0	0	0	0	519	
10	0	0	0	0	518	
11	0	0	0	0	516	
12	0	0	0	0	516	
13	0	0	0	0	516	
14	0	0	0	0	516	
15	0	0	0	0	516	
0	0	0	0	0	516	
1	0	0	0	0	516	
2	0	0	0	0	515	
3	0	0	0	0	515	
4	0	0	0	0	515	
5	0	0	0	0	516	
6	0	0	0	0	515	
7	0	0	0	0	515	
8	0	0	0	0	515	
9	0	0	0	0	515	
10	0	0	0	0	514	
11	0	0	0	0	513	
12	0	0	0	0	512	
13	0	0	0	0	511	
14	0	0	0	0	510	
15	0	0	0	0	508	
0	0	0	0	0	507	
1	0	0	0	0	507	
2	0	0	0	0	506	
3	0	0	0	0	506	
4	0	0	0	0	506	
5	0	0	0	0	505	
6	0	0	0	0	505	
7	0	0	0	0	504	
8	0	0	0	0	504	
9	0	0	0	0	504	
10	0	0	0	0	504	
11	0	0	0	0	504	
12	0	0	0	0	504	
13	0	0	0	0	504	
14	0	0	0	0	503	
15	0	0	0	0	503	
0	0	0	0	0	503	
1	0	0	0	0	502	
2	0	0	0	0	503	
3	0	0	0	0	503	
4	0	0	0	0	502	
5	0	0	0	0	502	
6	0	0	0	0	502	
7	0	0	0	0	500	
8	0	0	0	0	499	
9	0	0	0	0	498	
10	0	0	0	0	498	
11	0	0	0	0	497	
12	0	0	0	0	497	
13	0	0	0	0	497	
14	0	0	0	0	497	
15	0	0	0	0	497	
0	0	0	0	0	498	
1	0	0	0	0	497	
2	0	0	0	0	496	
3	0	0	0	0	496	
4	0	0	0	0	497	
5	0	0	0	0	497	
6	0	0	0	0	497	
7	0	0	0	0	497	
8	0	0	0	0	498	
9	0	0	0	0	498	
10	0	0	0	0	498	
11	0	0	0	0	499	
12	0	0	0	0	498	
13	0	0	0	0	499	
14	0	0	0	0	499	
15	0	0	0	0	499	
0	0	0	0	0	499	
1	0	0	0	0	499	
2	0	0	0	0	499	
3	0	0	0	0	499	
4	0	0	0	0	500	
5	0	0	0	0	501	
6	0	0	0	0	501	
7	0	0	0	0	502	
8	0	0	0	0	502	
9	0	0	0	0	502	
10	0	0	0	0	503	
11	0	0	0	0	503	
12	0	0	0	0	503	
13	0	0	0	0	503	
14	0	0	0	0	503	
15	0	0	0	0	504	
0	0	0	0	0	504	
1	0	0	0	0	504	
2	0	0	0	0	503	
3	0	0	0	0	503	
4	0	0	0	0	503	
5	0	0	0	0	504	
6	0	0	0	0	504	
7	0	0	0	0	504	
8	0	0	0	0	504	
9	0	0	0	0	504	
10	0	0	0	0	504	
11	0	0	0	0	505	
12	0	0	0	0	505	
13	0	0	0	0	505	
14	0	0	0	0	506	
15	0	0	0	0	506	
0	0	0	0	0	507	
1	0	0	0	0	506	
2	0	0	0	0	505	
3	0	0	0	0	505	
4	0	0	0	0	505	
5	0	0	0	0	504	
6	0	0	0	0	504	
7	0	0	0	0	504	
8	0	0	0	0	503	
9	0	0	0	0	503	
10	0	0	0	0	504	
11	0	0	0	0	503	
12	0	0	0	0	503	
13	0	0	0	0	502	
14	0	0	0	0	501	
15	0	0	0	0	500	
0	0	0	0	0	500	
1	0	0	0	0	500	
2	0	0	0	0	499	
3	0	0	0	0	498	
4	0	0	0	0	497	
5	0	0	0	0	496	
6	0	0	0	0	494	
7	0	0	0	0	492	
8	0	0	0	0	490	
9	0	0	0	0	487	
10	0	0	0	0	485	
11	0	0	0	0	482	
12	0	0	0	0	480	
13	0	0	0	0	478	
14	0	0	0	0	477	
15	0	0	0	0	475	
0	0	0	0	0	474	
1	0	0	0	0	474	
2	0	0	0	0	474	
3	0	0	0	0	474	
4	0	0	0	0	475	
5	0	0	0	0	474	
6	0	0	0	0	473	
7	0	0	0	0	472	
8	0	0	0	0	472	
9	0	0	0	0	472	
10	0	0	0	0	472	
11	0	0	0	0	472	
12	0	0	0	0	472	
13	0	0	0	0	473	
14	0	0	0	0	472	
15	0	0	0	0	471	
0	0	0	0	0	469	
1	0	0	0	0	468	
2	0	0	0	0	467	
3	0	0	0	0	467	
4	0	0	0	0	467	
5	0	0	0	0	468	
6	0	0	0	0	468	
7	0	0	0	0	468	
8	0	0	0	0	467	
9	0	0	0	0	465	
10	0	0	0	0	464	
11	0	0	0	0	462	
12	0	0	0	0	461	
13	0	0	0	0	458	
14	0	0	0	0	458	
15	0	0	0	0	457	
0	0	0	0	0	455	
1	0	0	0	0	454	
2	0	0	0	0	452	
3	0	0	0	0	452	
4	0	0	0	0	451	
5	0	0	0	0	451	
6	0	0	0	0	451	
7	0	0	0	0	452	
8	0	0	0	0	454	
9	0	0	0	0	455	
10	0	0	0	0	457	
11	0	0	0	0	460	
12	0	0	0	0	461	
13	0	0	0	0	464	
14	0	0	0	0	465	
15	0	0	0	0	467	
0	0	0	0	0	469	
1	0	0	0	0	472	
2	0	0	0	0	476	
3	0	0	0	0	481	
4	0	0	0	0	484	
5	0	0	0	0	487	
6	0	0	0	0	490	
7	0	0	0	0	494	
8	0	0	0	0	497	
9	0	0	0	0	501	
10	0	0	0	0	504	
11	0	0	0	0	507	
12	0	0	0	0	511	
13	0	0	0	0	513	
14	0	0	0	0	516	
15	0	0	0	0	519	
0	0	0	0	0	522	
1	0	0	0	0	524	
2	0	0	0	0	527	
3	0	0	0	0	529	
4	0	0	0	0	532	
5	0	0	0	0	533	
6	0	0	0	0	535	
7	0	0	0	0	536	
8	0	0	0	0	538	
9	0	0	0	0	539	
10	0	0	0	0	540	
11	0	0	0	0	540	
12	0	0	0	0	540	
13	0	0	0	0	541	
14	0	0	0	0	540	
15	0	0	0	0	540	
0	0	0	0	0	540	
1	0	0	0	0	540	
2	0	0	0	0	540	
3	0	0	0	0	540	
4	0	0	0	0	541	
5	0	0	0	0	541	
6	0	0	0	0	541	
7	0	0	0	0	541	
8	0	0	0	0	541	
9	0	0	0	0	540	
10	0	0	0	0	540	
11	0	0	0	0	540	
12	0	0	0	0	540	
13	0	0	0	0	540	
14	0	0	0	0	539	
15	0	0	0	0	539	
0	0	0	0	0	538	
1	0	0	0	0	537	
2	0	0	0	0	537	
3	0	0	0	0	537	
4	0	0	0	0	538	
5	0	0	0	0	539	
6	0	0	0	0	539	
7	0	0	0	0	540	
8	0	0	0	0	539	
9	0	0	0	0	538	
10	0	0	0	0	538	
11	0	0	0	0	537	
12	0	0	0	0	537	
13	0	0	0	0	536	
14	0	0	0	0	536	
15	0	0	0	0	536	
0	0	0	0	0	536	
1	0	0	0	0	538	
2	0	0	0	0	540	
3	0	0	0	0	541	
4	0	0	0	0	543	
5	0	0	0	0	545	
6	0	0	0	0	548	
7	0	0	0	0	551	
8	0	0	0	0	555	
9	0	0	0	0	557	
10	0	0	0	0	561	
11	0	0	0	0	566	
12	0	0	0	0	572	
13	0	0	0	0	575	
14	0	0	0	0	578	
15	0	0	0	0	579	
0	0	0	0	0	577	
1	0	0	0	0	573	
2	0	0	0	0	564	
3	0	0	0	0	551	
4	0	0	0	0	536	
5	0	0	0	0	519	
6	0	0	0	0	499	
7	0	0	0	0	478	
8	0	0	0	0	455	
9	0	0	0	0	429	
10	0	0	0	0	403	
11	0	0	0	0	376	
12	0	0	0	0	350	
13	0	0	0	0	321	
14	0	0	0	0	292	
15	0	0	0	0	262	
0	0	0	0	0	230	
1	0	0	0	0	199	
2	0	0	0	0	167	
3	0	0	0	0	133	
4	0	0	0	0	96	
5	0	0	0	0	55	
6	0	0	0	0	14	
7	0	0	0	0	0	
8	0	0	0	0	0	
9	0	0	0	0	0	
10	0	0	0	0	0	
11	0	0	0	0	0	
12	0	0	0	0	0	
13	0	0	0	0	0	
14	0	0	0	0	0	
15	0	0	0	0	0	
0	0	0	0	0	0	
1	0	0	0	0	0	
2	0	0	0	0	0	
3	0	0	0	0	0	
4	0	0	0	0	44	
5	0	0	0	0	103	
6	0	0	0	0	160	
7	0	0	0	0	211	
8	0	0	0	0	257	
9	0	0	0	0	304	
10	0	0	0	0	351	
11	0	0	0	0	394	
12	0	0	0	0	433	
13	0	0	0	0	469	
14	0	0	0	0	501	
15	0	0	0	0	530	
0	0	0	0	0	556	
1	0	0	0	0	578	
2	0	0	0	0	597	
3	0	0	0	0	612	
4	0	0	0	0	625	
5	0	0	0	0	636	
6	0	0	0	0	647	
7	0	0	0	0	656	
8	0	0	0	0	664	
9	0	0	0	0	673	
10	0	0	0	0	681	
11	0	0	0	0	687	
12	0	0	0	0	691	
13	0	0	0	0	694	
14	0	0	0	0	695	
15	0	0	0	0	695	
0	0	0	0	0	693	
1	0	0	0	0	691	
2	0	0	0	0	688	
3	0	0	0	0	686	
4	0	0	0	0	683	
5	0	0	0	0	681	
6	0	0	0	0	679	
7	0	0	0	0	678	
8	0	0	0	0	675	
9	0	0	0	0	673	
10	0	0	0	0	671	
11	0	0	0	0	669	
12	0	0	0	0	666	
13	0	0	0	0	664	
14	0	0	0	0	662	
15	0	0	0	0	659	
0	0	0	0	0	657	
1	0	0	0	0	654	
2	0	0	0	0	652	
3	0	0	0	0	650	
4	0	0	0	0	648	
5	0	0	0	0	646	
6	0	0	0	0	644	
7	0	0	0	0	643	
8	0	0	0	0	641	
9	0	0	0	0	640	
10	0	0	0	0	639	
11	0	0	0	0	638	
12	0	0	0	0	637	
13	0	0	0	0	636	
14	0	0	0	0	635	
15	0	0	0	0	634	
0	0	0	0	0	632	
1	0	0	0	0	631	
2	0	0	0	0	630	
3	0	0	0	0	629	
4	0	0	0	0	628	
5	0	0	0	0	627	
6	0	0	0	0	625	
7	0	0	0	0	623	
8	0	0	0	0	622	
9	0	0	0	0	620	
10	0	0	0	0	618	
11	0	0	0	0	616	
12	0	0	0	0	615	
13	0	0	0	0	615	
14	0	0	0	0	613	
15	0	0	0	0	612	
0	0	0	0	0	610	
1	0	0	0	0	608	
2	0	0	0	0	606	
3	0	0	0	0	605	
4	0	0	0	0	604	
5	0	0	0	0	603	
6	0	0	0	0	602	
7	0	0	0	0	600	
8	0	0	0	0	600	
9	0	0	0	0	599	
10	0	0	0	0	597	
11	0	0	0	0	596	
12	0	0	0	0	595	
13	0	0	0	0	593	
14	0	0	0	0	592	
15	0	0	0	0	590	
0	0	0	0	0	589	
1	0	0	0	0	588	
2	0	0	0	0	587	
3	0	0	0	0	585	
4	0	0	0	0	584	
5	0	0	0	0	583	
6	0	0	0	0	581	
7	0	0	0	0	580	
8	0	0	0	0	579	
9	0	0	0	0	577	
10	0	0	0	0	575	
11	0	0	0	0	574	
12	0	0	0	0	572	
13	0	0	0	0	570	
14	0	0	0	0	569	
15	0	0	0	0	568	
0	0	0	0	0	567	
1	0	0	0	0	565	
2	0	0	0	0	564	
3	0	0	0	0	562	
4	0	0	0	0	561	
5	0	0	0	0	559	
6	0	0	0	0	558	
7	0	0	0	0	557	
8	0	0	0	0	556	
9	0	0	0	0	556	
10	0	0	0	0	555	
11	0	0	0	0	555	
12	0	0	0	0	554	
13	0	0	0	0	553	
14	0	0	0	0	552	
15	0	0	0	0	551	
0	0	0	0	0	549	
1	0	0	0	0	547	
2	0	0	0	0	547	
3	0	0	0	0	545	
4	0	0	0	0	545	
5	0	0	0	0	544	
6	0	0	0	0	542	
7	0	0	0	0	541	
8	0	0	0	0	539	
9	0	0	0	0	538	
10	0	0	0	0	538	
11	0	0	0	0	537	
12	0	0	0	0	536	
13	0	0	0	0	536	
14	0	0	0	0	534	
15	0	0	0	0	534	
0	0	0	0	0	533	
1	0	0	0	0	532	
2	0	0	0	0	530	
3	0	0	0	0	529	
4	0	0	0	0	527	
5	0	0	0	0	526	
6	0	0	0	0	526	
7	0	0	0	0	525	
8	0	0	0	0	524	
9	0	0	0	0	523	
10	0	0	0	0	523	
11	0	0	0	0	522	
12	0	0	0	0	521	
13	0	0	0	0	520	
14	0	0	0	0	519	
15	0	0	0	0	519	
0	0	0	0	0	518	
1	0	0	0	0	517	
2	0	0	0	0	516	
3	0	0	0	0	515	
4	0	0	0	0	515	
5	0	0	0	0	514	
6	0	0	0	0	513	
7	0	0	0	0	512	
8	0	0	0	0	511	
9	0	0	0	0	510	
10	0	0	0	0	509	
11	0	0	0	0	508	
12	0	0	0	0	506	
13	0	0	0	0	505	
14	0	0	0	0	504	
15	0	0	0	0	503	
0	0	0	0	0	502	
1	0	0	0	0	501	
2	0	0	0	0	501	
3	0	0	0	0	499	
4	0	0	0	0	499	
5	0	0	0	0	497	
6	0	0	0	0	496	
7	0	0	0	0	495	
8	0	0	0	0	494	
9	0	0	0	0	493	
10	0	0	0	0	492	
11	0	0	0	0	491	
12	0	0	0	0	489	
13	0	0	0	0	488	
14	0	0	0	0	488	
15	0	0	0	0	487	
0	0	0	0	0	486	
1	0	0	0	0	484	
2	0	0	0	0	483	
3	0	0	0	0	482	
4	0	0	0	0	481	
5	0	0	0	0	481	
6	0	0	0	0	480	
7	0	0	0	0	479	
8	0	0	0	0	478	
9	0	0	0	0	476	
10	0	0	0	0	476	
11	0	0	0	0	475	
12	0	0	0	0	474	
13	0	0	0	0	473	
14	0	0	0	0	472	
15	0	0	0	0	472	
0	0	0	0	0	472	
1	0	0	0	0	472	
2	0	0	0	0	471	
3	0	0	0	0	471	
4	0	0	0	0	471	
5	0	0	0	0	471	
6	0	0	0	0	471	
7	0	0	0	0	471	
8	0	0	0	0	472	
9	0	0	0	0	472	
10	0	0	0	0	473	
11	0	0	0	0	475	
12	0	0	0	0	476	
13	0	0	0	0	477	
14	0	0	0	0	478	
15	0	0	0	0	480	
0	0	0	0	0	482	
1	0	0	0	0	483	
2	0	0	0	0	485	
3	0	0	0	0	487	
4	0	0	0	0	488	
5	0	0	0	0	489	
6	0	0	0	0	490	
7	0	0	0	0	491	
8	0	0	0	0	492	
9	0	0	0	0	493	
10	0	0	0	0	494	
11	0	0	0	0	495	
12	0	0	0	0	497	
13	0	0	0	0	499	
14	0	0	0	0	502	
15	0	0	0	0	503	
0	0	0	0	0	504	
1	0	0	0	0	505	
2	0	0	0	0	507	
3	0	0	0	0	508	
4	0	0	0	0	510	
5	0	0	0	0	511	
6	0	0	0	0	512	
7	0	0	0	0	513	
8	0	0	0	0	515	
9	0	0	0	0	516	
10	0	0	0	0	516	
11	0	0	0	0	517	
12	0	0	0	0	517	
13	0	0	0	0	517	
14	0	0	0	0	517	
15	0	0	0	0	518	
0	0	0	0	0	519	
1	0	0	0	0	520	
2	0	0	0	0	521	
3	0	0	0	0	522	
4	0	0	0	0	523	
5	0	0	0	0	524	
6	0	0	0	0	524	
7	0	0	0	0	525	
8	0	0	0	0	525	
9	0	0	0	0	525	
10	0	0	0	0	525	
11	0	0	0	0	524	
12	0	0	0	0	524	
13	0	0	0	0	524	
14	0	0	0	0	524	
15	0	0	0	0	525	
0	0	0	0	0	524	
1	0	0	0	0	524	
2	0	0	0	0	524	
3	0	0	0	0	523	
4	0	0	0	0	522	
5	0	0	0	0	522	
6	0	0	0	0	521	
7	0	0	0	0	521	
8	0	0	0	0	521	
9	0	0	0	0	520	
10	0	0	0	0	520	
11	0	0	0	0	521	
12	0	0	0	0	521	
13	0	0	0	0	521	
14	0	0	0	0	521	
15	0	0	0	0	521	
0	0	0	0	0	521	
1	0	0	0	0	520	
2	0	0	0	0	521	
3	0	0	0	0	520	
4	0	0	0	0	519	
5	0	0	0	0	519	
6	0	0	0	0	519	
7	0	0	0	0	517	
8	0	0	0	0	516	
9	0	0	0	0	516	
10	0	0	0	0	516	
11	0	0	0	0	515	
12	0	0	0	0	515	
13	0	0	0	0	515	
14	0	0	0	0	515	
15	0	0	0	0	515	
0	0	0	0	0	516	
1	0	0	0	0	516	
2	0	0	0	0	515	
3	0	0	0	0	515	
4	0	0	0	0	515	
5	0	0	0	0	514	
6	0	0	0	0	514	
7	0	0	0	0	513	
8	0	0	0	0	512	
9	0	0	0	0	512	
10	0	0	0	0	511	
11	0	0	0	0	511	
12	0	0	0	0	511	
13	0	0	0	0	510	
14	0	0	0	0	510	
15	0	0	0	0	509	
0	0	0	0	0	509	
1	0	0	0	0	508	
2	0	0	0	0	508	
3	0	0	0	0	507	
4	0	0	0	0	507	
5	0	0	0	0	506	
6	0	0	0	0	505	
7	0	0	0	0	505	
8	0	0	0	0	505	
9	0	0	0	0	504	
10	0	0	0	0	504	
11	0	0	0	0	504	
12	0	0	0	0	504	
13	0	0	0	0	503	
14	0	0	0	0	501	
15	0	0	0	0	500	
0	0	0	0	0	499	
1	0	0	0	0	499	
2	0	0	0	0	499	
3	0	0	0	0	499	
4	0	0	0	0	499	
5	0	0	0	0	499	
6	0	0	0	0	499	
7	0	0	0	0	499	
8	0	0	0	0	498	
9	0	0	0	0	498	
10	0	0	0	0	498	
11	0	0	0	0	498	
12	0	0	0	0	497	
13	0	0	0	0	497	
14	0	0	0	0	496	
15	0	0	0	0	496	
0	0	0	0	0	495	
1	0	0	0	0	495	
2	0	0	0	0	494	
3	0	0	0	0	494	
4	0	0	0	0	495	
5	0	0	0	0	494	
6	0	0	0	0	494	
7	0	0	0	0	494	
8	0	0	0	0	493	
9	0	0	0	0	493	
10	0	0	0	0	493	
11	0	0	0	0	493	
12	0	0	0	0	493	
13	0	0	0	0	493	
14	0	0	0	0	493	
15	0	0	0	0	493	
0	0	0	0	0	493	
1	0	0	0	0	492	
2	0	0	0	0	492	
3	0	0	0	0	492	
4	0	0	0	0	491	
5	0	0	0	0	491	
6	0	0	0	0	490	
7	0	0	0	0	490	
8	0	0	0	0	490	
9	0	0	0	0	491	
10	0	0	0	0	492	
11	0	0	0	0	492	
12	0	0	0	0	493	
13	0	0	0	0	493	
14	0	0	0	0	494	
15	0	0	0	0	494	
0	0	0	0	0	494	
1	0	0	0	0	494	
2	0	0	0	0	494	
3	0	0	0	0	494	
4	0	0	0	0	494	
5	0	0	0	0	494	
6	0	0	0	0	494	
7	0	0	0	0	494	
8	0	0	0	0	493	
9	0	0	0	0	492	
10	0	0	0	0	492	
11	0	0	0	0	491	
12	0	0	0	0	491	
13	0	0	0	0	491	
14	0	0	0	0	491	
15	0	0	0	0	491	
0	0	0	0	0	491	
1	0	0	0	0	492	
2	0	0	0	0	492	
3	0	0	0	0	494	
4	0	0	0	0	495	
5	0	0	0	0	495	
6	0	0	0	0	495	
7	0	0	0	0	496	
8	0	0	0	0	496	
9	0	0	0	0	496	
10	0	0	0	0	496	
11	0	0	0	0	496	
12	0	0	0	0	496	
13	0	0	0	0	495	
14	0	0	0	0	494	
15	0	0	0	0	494	
0	0	0	0	0	494	
1	0	0	0	0	494	
2	0	0	0	0	495	
3	0	0	0	0	495	
4	0	0	0	0	496	
5	0	0	0	0	497	
6	0	0	0	0	497	
7	0	0	0	0	497	
8	0	0	0	0	498	
9	0	0	0	0	498	
10	0	0	0	0	498	
11	0	0	0	0	498	
12	0	0	0	0	498	
13	0	0	0	0	497	
14	0	0	0	0	497	
15	0	0	0	0	496	
0	0	0	0	0	496	
1	0	0	0	0	495	
2	0	0	0	0	495	
3	0	0	0	0	495	
4	0	0	0	0	494	
5	0	0	0	0	492	
6	0	0	0	0	492	
7	0	0	0	0	491	
8	0	0	0	0	489	
9	0	0	0	0	487	
10	0	0	0	0	486	
11	0	0	0	0	484	
12	0	0	0	0	482	
13	0	0	0	0	480	
14	0	0	0	0	478	
15	0	0	0	0	476	
0	0	0	0	0	474	
1	0	0	0	0	472	
2	0	0	0	0	471	
3	0	0	0	0	470	
4	0	0	0	0	469	
5	0	0	0	0	470	
6	0	0	0	0	470	
7	0	0	0	0	471	
8	0	0	0	0	471	
9	0	0	0	0	471	
10	0	0	0	0	471	
11	0	0	0	0	472	
12	0	0	0	0	472	
13	0	0	0	0	473	
14	0	0	0	0	474	
15	0	0	0	0	475	
0	0	0	0	0	474	
1	0	0	0	0	473	
2	0	0	0	0	472	
3	0	0	0	0	470	
4	0	0	0	0	469	
5	0	0	0	0	467	
6	0	0	0	0	467	
7	0	0	0	0	467	
8	0	0	0	0	465	
9	0	0	0	0	464	
10	0	0	0	0	463	
11	0	0	0	0	460	
12	0	0	0	0	459	
13	0	0	0	0	457	
14	0	0	0	0	455	
15	0	0	0	0	454	
0	0	0	0	0	452	
1	0	0	0	0	450	
2	0	0	0	0	449	
3	0	0	0	0	449	
4	0	0	0	0	449	
5	0	0	0	0	449	
6	0	0	0	0	448	
7	0	0	0	0	448	
8	0	0	0	0	449	
9	0	0	0	0	448	
10	0	0	0	0	449	
11	0	0	0	0	451	
12	0	0	0	0	452	
13	0	0	0	0	454	
14	0	0	0	0	455	
15	0	0	0	0	458	
0	0	0	0	0	460	
1	0	0	0	0	463	
2	0	0	0	0	467	
3	0	0	0	0	471	
4	0	0	0	0	475	
5	0	0	0	0	479	
6	0	0	0	0	483	
7	0	0	0	0	487	
8	0	0	0	0	491	
9	0	0	0	0	495	
10	0	0	0	0	498	
11	0	0	0	0	500	
12	0	0	0	0	504	
13	0	0	0	0	507	
14	0	0	0	0	510	
15	0	0	0	0	512	
0	0	0	0	0	514	
1	0	0	0	0	517	
2	0	0	0	0	519	
3	0	0	0	0	520	
4	0	0	0	0	523	
5	0	0	0	0	525	
6	0	0	0	0	528	
7	0	0	0	0	530	
8	0	0	0	0	531	
9	0	0	0	0	533	
10	0	0	0	0	534	
11	0	0	0	0	535	
12	0	0	0	0	535	
13	0	0	0	0	536	
14	0	0	0	0	536	
15	0	0	0	0	536	
0	0	0	0	0	536	
1	0	0	0	0	534	
2	0	0	0	0	534	
3	0	0	0	0	533	
4	0	0	0	0	534	
5	0	0	0	0	534	
6	0	0	0	0	534	
7	0	0	0	0	534	
8	0	0	0	0	533	
9	0	0	0	0	533	
10	0	0	0	0	533	
11	0	0	0	0	533	
12	0	0	0	0	534	
13	0	0	0	0	534	
14	0	0	0	0	533	
15	0	0	0	0	534	
0	0	0	0	0	534	
1	0	0	0	0	534	
2	0	0	0	0	534	
3	0	0	0	0	533	
4	0	0	0	0	532	
5	0	0	0	0	532	
6	0	0	0	0	532	
7	0	0	0	0	531	
8	0	0	0	0	531	
9	0	0	0	0	531	
10	0	0	0	0	530	
11	0	0	0	0	530	
12	0	0	0	0	529	
13	0	0	0	0	528	
14	0	0	0	0	529	
15	0	0	0	0	529	
0	0	0	0	0	529	
1	0	0	0	0	530	
2	0	0	0	0	531	
3	0	0	0	0	533	
4	0	0	0	0	535	
5	0	0	0	0	537	
6	0	0	0	0	540	
7	0	0	0	0	543	
8	0	0	0	0	545	
9	0	0	0	0	547	
10	0	0	0	0	550	
11	0	0	0	0	553	
12	0	0	0	0	558	
13	0	0	0	0	563	
14	0	0	0	0	566	
15	0	0	0	0	570	
0	0	0	0	0	573	
1	0	0	0	0	574	
2	0	0	0	0	573	
3	0	0	0	0	566	
4	0	0	0	0	555	
5	0	0	0	0	542	
6	0	0	0	0	526	
7	0	0	0	0	508	
8	0	0	0	0	488	
9	0	0	0	0	466	
10	0	0	0	0	443	
11	0	0	0	0	417	
12	0	0	0	0	390	
13	0	0	0	0	363	
14	0	0	0	0	334	
15	0	0	0	0	304	
0	0	0	0	0	272	
1	0	0	0	0	239	
2	0	0	0	0	206	
3	0	0	0	0	173	
4	0	0	0	0	137	
5	0	0	0	0	99	
6	0	0	0	0	59	
7	0	0	0	0	17	
8	0	0	0	0	0	
9	0	0	0	0	0	
10	0	0	0	0	0	
11	0	0	0	0	0	
12	0	0	0	0	0	
13	0	0	0	0	0	
14	0	0	0	0	0	
15	0	0	0	0	0	
0	0	0	0	0	0	
1	0	0	0	0	0	
2	0	0	0	0	0	
3	0	0	0	0	0	
4	0	0	0	0	0	
5	0	0	0	0	0	
6	0	0	0	0	46	
7	0	0	0	0	103	
8	0	0	0	0	156	
9	0	0	0	0	205	
10	0	0	0	0	255	
11	0	0	0	0	306	
12	0	0	0	0	354	
13	0	0	0	0	399	
14	0	0	0	0	442	
15	0	0	0	0	481	
0	0	0	0	0	515	
1	0	0	0	0	546	
2	0	0	0	0	572	
3	0	0	0	0	593	
4	0	0	0	0	609	
5	0	0	0	0	622	
6	0	0	0	0	632	
7	0	0	0	0	641	
8	0	0	0	0	650	
9	0	0	0	0	657	
10	0	0	0	0	665	
11	0	0	0	0	673	
12	0	0	0	0	680	
13	0	0	0	0	685	
14	0	0	0	0	688	
15	0	0	0	0	690	
0	0	0	0	0	692	
1	0	0	0	0	692	
2	0	0	0	0	690	
3	0	0	0	0	688	
4	0	0	0	0	685	
5	0	0	0	0	683	
6	0	0	0	0	681	
7	0	0	0	0	679	
8	0	0	0	0	676	
9	0	0	0	0	673	
10	0	0	0	0	671	
11	0	0	0	0	668	
12	0	0	0	0	665	
13	0	0	0	0	663	
14	0	0	0	0	660	
15	0	0	0	0	659	
0	0	0	0	0	657	
1	0	0	0	0	655	
2	0	0	0	0	654	
3	0	0	0	0	653	
4	0	0	0	0	652	
5	0	0	0	0	650	
6	0	0	0	0	648	
7	0	0	0	0	647	
8	0	0	0	0	646	
9	0	0	0	0	645	
10	0	0	0	0	643	
11	0	0	0	0	642	
12	0	0	0	0	640	
13	0	0	0	0	639	
14	0	0	0	0	637	
15	0	0	0	0	636	
0	0	0	0	0	633	
1	0	0	0	0	632	
2	0	0	0	0	631	
3	0	0	0	0	629	
4	0	0	0	0	627	
5	0	0	0	0	625	
6	0	0	0	0	624	
7	0	0	0	0	624	
8	0	0	0	0	623	
9	0	0	0	0	622	
10	0	0	0	0	620	
11	0	0	0	0	619	
12	0	0	0	0	617	
13	0	0	0	0	616	
14	0	0	0	0	615	
15	0	0	0	0	614	
0	0	0	0	0	612	
1	0	0	0	0	611	
2	0	0	0	0	609	
3	0	0	0	0	607	
4	0	0	0	0	605	
5	0	0	0	0	604	
6	0	0	0	0	603	
7	0	0	0	0	603	
8	0	0	0	0	600	
9	0	0	0	0	599	
10	0	0	0	0	597	
11	0	0	0	0	596	
12	0	0	0	0	595	
13	0	0	0	0	594	
14	0	0	0	0	594	
15	0	0	0	0	593	
0	0	0	0	0	592	
1	0	0	0	0	591	
2	0	0	0	0	590	
3	0	0	0	0	588	
4	0	0	0	0	587	
5	0	0	0	0	585	
6	0	0	0	0	583	
7	0	0	0	0	582	
8	0	0	0	0	580	
9	0	0	0	0	578	
10	0	0	0	0	576	
11	0	0	0	0	574	
12	0	0	0	0	573	
13	0	0	0	0	572	
14	0	0	0	0	571	
15	0	0	0	0	569	
0	0	0	0	0	568	
1	0	0	0	0	567	
2	0	0	0	0	566	
3	0	0	0	0	564	
4	0	0	0	0	563	
5	0	0	0	0	562	
6	0	0	0	0	561	
7	0	0	0	0	559	
8	0	0	0	0	558	
9	0	0	0	0	557	
10	0	0	0	0	555	
11	0	0	0	0	554	
12	0	0	0	0	554	
13	0	0	0	0	554	
14	0	0	0	0	553	
15	0	0	0	0	552	
0	0	0	0	0	551	
1	0	0	0	0	550	
2	0	0	0	0	550	
3	0	0	0	0	549	
4	0	0	0	0	548	
5	0	0	0	0	547	
6	0	0	0	0	546	
7	0	0	0	0	545	
8	0	0	0	0	545	
9	0	0	0	0	545	
10	0	0	0	0	544	
11	0	0	0	0	543	
12	0	0	0	0	542	
13	0	0	0	0	541	
14	0	0	0	0	541	
15	0	0	0	0	540	
0	0	0	0	0	539	
1	0	0	0	0	537	
2	0	0	0	0	536	
3	0	0	0	0	535	
4	0	0	0	0	534	
5	0	0	0	0	532	
6	0	0	0	0	531	
7	0	0	0	0	530	
8	0	0	0	0	530	
9	0	0	0	0	528	
10	0	0	0	0	528	
11	0	0	0	0	527	
12	0	0	0	0	526	
13	0	0	0	0	524	
14	0	0	0	0	523	
15	0	0	0	0	522	
0	0	0	0	0	520	
1	0	0	0	0	519	
2	0	0	0	0	518	
3	0	0	0	0	517	
4	0	0	0	0	515	
5	0	0	0	0	513	
6	0	0	0	0	512	
7	0	0	0	0	511	
8	0	0	0	0	510	
9	0	0	0	0	509	
10	0	0	0	0	509	
11	0	0	0	0	507	
12	0	0	0	0	507	
13	0	0	0	0	506	
14	0	0	0	0	506	
15	0	0	0	0	506	
0	0	0	0	0	505	
1	0	0	0	0	504	
2	0	0	0	0	502	
3	0	0	0	0	499	
4	0	0	0	0	498	
5	0	0	0	0	497	
6	0	0	0	0	496	
7	0	0	0	0	495	
8	0	0	0	0	494	
9	0	0	0	0	492	
10	0	0	0	0	492	
11	0	0	0	0	491	
12	0	0	0	0	489	
13	0	0	0	0	489	
14	0	0	0	0	489	
15	0	0	0	0	489	
0	0	0	0	0	488	
1	0	0	0	0	487	
2	0	0	0	0	487	
3	0	0	0	0	486	
4	0	0	0	0	485	
5	0	0	0	0	484	
6	0	0	0	0	482	
7	0	0	0	0	480	
8	0	0	0	0	479	
9	0	0	0	0	478	
10	0	0	0	0	477	
11	0	0	0	0	477	
12	0	0	0	0	476	
13	0	0	0	0	476	
14	0	0	0	0	475	
15	0	0	0	0	476	
0	0	0	0	0	476	
1	0	0	0	0	475	
2	0	0	0	0	475	
3	0	0	0	0	476	
4	0	0	0	0	476	
5	0	0	0	0	477	
6	0	0	0	0	478	
7	0	0	0	0	478	
8	0	0	0	0	479	
9	0	0	0	0	480	
10	0	0	0	0	481	
11	0	0	0	0	481	
12	0	0	0	0	483	
13	0	0	0	0	483	
14	0	0	0	0	484	
15	0	0	0	0	485	
0	0	0	0	0	487	
1	0	0	0	0	488	
2	0	0	0	0	489	
3	0	0	0	0	491	
4	0	0	0	0	492	
5	0	0	0	0	494	
6	0	0	0	0	496	
7	0	0	0	0	497	
8	0	0	0	0	500	
9	0	0	0	0	502	
10	0	0	0	0	504	
11	0	0	0	0	505	
12	0	0	0	0	507	
13	0	0	0	0	509	
14	0	0	0	0	510	
15	0	0	0	0	512	
0	0	0	0	0	514	
1	0	0	0	0	515	
2	0	0	0	0	516	
3	0	0	0	0	517	
4	0	0	0	0	518	
5	0	0	0	0	519	
6	0	0	0	0	520	
7	0	0	0	0	521	
8	0	0	0	0	522	
9	0	0	0	0	523	
10	0	0	0	0	524	
11	0	0	0	0	525	
12	0	0	0	0	527	
13	0	0	0	0	528	
14	0	0	0	0	529	
15	0	0	0	0	531	
0	0	0	0	0	531	
1	0	0	0	0	532	
2	0	0	0	0	532	
3	0	0	0	0	533	
4	0	0	0	0	533	
5	0	0	0	0	533	
6	0	0	0	0	533	
7	0	0	0	0	534	
8	0	0	0	0	533	
9	0	0	0	0	533	
10	0	0	0	0	533	
11	0	0	0	0	534	
12	0	0	0	0	535	
13	0	0	0	0	535	
14	0	0	0	0	536	
15	0	0	0	0	536	
0	0	0	0	0	536	
1	0	0	0	0	536	
2	0	0	0	0	536	
3	0	0	0	0	536	
4	0	0	0	0	536	
5	0	0	0	0	536	
6	0	0	0	0	536	
7	0	0	0	0	536	
8	0	0	0	0	536	
9	0	0	0	0	536	
10	0	0	0	0	535	
11	0	0	0	0	534	
12	0	0	0	0	533	
13	0	0	0	0	532	
14	0	0	0	0	532	
15	0	0	0	0	532	
0	0	0	0	0	532	
1	0	0	0	0	532	
2	0	0	0	0	532	
3	0	0	0	0	532	
4	0	0	0	0	532	
5	0	0	0	0	532	
6	0	0	0	0	532	
7	0	0	0	0	532	
8	0	0	0	0	532	
9	0	0	0	0	531	
10	0	0	0	0	531	
11	0	0	0	0	530	
12	0	0	0	0	529	
13	0	0	0	0	529	
14	0	0	0	0	528	
15	0	0	0	0	527	
0	0	0	0	0	525	
1	0	0	0	0	525	
2	0	0	0	0	524	
3	0	0	0	0	523	
4	0	0	0	0	523	
5	0	0	0	0	523	
6	0	0	0	0	523	
7	0	0	0	0	523	
8	0	0	0	0	523	
9	0	0	0	0	522	
10	0	0	0	0	522	
11	0	0	0	0	521	
12	0	0	0	0	520	
13	0	0	0	0	520	
14	0	0	0	0	519	
15	0	0	0	0	519	
0	0	0	0	0	518	
1	0	0	0	0	515	
2	0	0	0	0	515	
3	0	0	0	0	514	
4	0	0	0	0	513	
5	0	0	0	0	513	
6	0	0	0	0	512	
7	0	0	0	0	512	
8	0	0	0	0	511	
9	0	0	0	0	511	
10	0	0	0	0	512	
11	0	0	0	0	511	
12	0	0	0	0	510	
13	0	0	0	0	510	
14	0	0	0	0	509	
15	0	0	0	0	509	
0	0	0	0	0	509	
1	0	0	0	0	509	
2	0	0	0	0	508	
3	0	0	0	0	507	
4	0	0	0	0	507	
5	0	0	0	0	506	
6	0	0	0	0	505	
7	0	0	0	0	504	
8	0	0	0	0	504	
9	0	0	0	0	504	
10	0	0	0	0	503	
11	0	0	0	0	503	
12	0	0	0	0	502	
13	0	0	0	0	502	
14	0	0	0	0	502	
15	0	0	0	0	502	
0	0	0	0	0	502	
1	0	0	0	0	502	
2	0	0	0	0	502	
3	0	0	0	0	502	
4	0	0	0	0	502	
5	0	0	0	0	501	
6	0	0	0	0	500	
7	0	0	0	0	500	
8	0	0	0	0	499	
9	0	0	0	0	499	
10	0	0	0	0	499	
11	0	0	0	0	499	
12	0	0	0	0	498	
13	0	0	0	0	498	
14	0	0	0	0	497	
15	0	0	0	0	497	
0	0	0	0	0	497	
1	0	0	0	0	497	
2	0	0	0	0	497	
3	0	0	0	0	498	
4	0	0	0	0	497	
5	0	0	0	0	497	
6	0	0	0	0	497	
7	0	0	0	0	498	
8	0	0	0	0	499	
9	0	0	0	0	498	
10	0	0	0	0	498	
11	0	0	0	0	497	
12	0	0	0	0	497	
13	0	0	0	0	497	
14	0	0	0	0	496	
15	0	0	0	0	496	
0	0	0	0	0	495	
1	0	0	0	0	495	
2	0	0	0	0	495	
3	0	0	0	0	494	
4	0	0	0	0	494	
5	0	0	0	0	495	
6	0	0	0	0	496	
7	0	0	0	0	496	
8	0	0	0	0	497	
9	0	0	0	0	498	
10	0	0	0	0	499	
11	0	0	0	0	499	
12	0	0	0	0	499	
13	0	0	0	0	499	
14	0	0	0	0	500	
15	0	0	0	0	499	
0	0	0	0	0	499	
1	0	0	0	0	499	
2	0	0	0	0	499	
3	0	0	0	0	499	
4	0	0	0	0	499	
5	0	0	0	0	499	
6	0	0	0	0	499	
7	0	0	0	0	498	
8	0	0	0	0	499	
9	0	0	0	0	498	
10	0	0	0	0	499	
11	0	0	0	0	499	
12	0	0	0	0	499	
13	0	0	0	0	500	
14	0	0	0	0	500	
15	0	0	0	0	502	
0	0	0	0	0	502	
1	0	0	0	0	502	
2	0	0	0	0	503	
3	0	0	0	0	502	
4	0	0	0	0	502	
5	0	0	0	0	502	
6	0	0	0	0	501	
7	0	0	0	0	501	
8	0	0	0	0	501	
9	0	0	0	0	501	
10	0	0	0	0	501	
11	0	0	0	0	501	
12	0	0	0	0	502	
13	0	0	0	0	502	
14	0	0	0	0	503	
15	0	0	0	0	503	
0	0	0	0	0	504	
1	0	0	0	0	503	
2	0	0	0	0	503	
3	0	0	0	0	503	
4	0	0	0	0	503	
5	0	0	0	0	504	
6	0	0	0	0	504	
7	0	0	0	0	505	
8	0	0	0	0	505	
9	0	0	0	0	505	
10	0	0	0	0	505	
11	0	0	0	0	505	
12	0	0	0	0	504	
13	0	0	0	0	504	
14	0	0	0	0	504	
15	0	0	0	0	505	
0	0	0	0	0	505	
1	0	0	0	0	505	
2	0	0	0	0	505	
3	0	0	0	0	505	
4	0	0	0	0	506	
5	0	0	0	0	506	
6	0	0	0	0	505	
7	0	0	0	0	506	
8	0	0	0	0	507	
9	0	0	0	0	507	
10	0	0	0	0	507	
11	0	0	0	0	506	
12	0	0	0	0	505	
13	0	0	0	0	504	
14	0	0	0	0	504	
15	0	0	0	0	503	
0	0	0	0	0	502	
1	0	0	0	0	502	
2	0	0	0	0	500	
3	0	0	0	0	499	
4	0	0	0	0	499	
5	0	0	0	0	498	
6	0	0	0	0	497	
7	0	0	0	0	496	
8	0	0	0	0	496	
9	0	0	0	0	495	
10	0	0	0	0	492	
11	0	0	0	0	491	
12	0	0	0	0	488	
13	0	0	0	0	486	
14	0	0	0	0	483	
15	0	0	0	0	480	
0	0	0	0	0	479	
1	0	0	0	0	477	
2	0	0	0	0	476	
3	0	0	0	0	474	
4	0	0	0	0	473	
5	0	0	0	0	472	
6	0	0	0	0	472	
7	0	0	0	0	472	
8	0	0	0	0	472	
9	0	0	0	0	473	
10	0	0	0	0	474	
11	0	0	0	0	474	
12	0	0	0	0	475	
13	0	0	0	0	476	
14	0	0	0	0	477	
15	0	0	0	0	478	
0	0	0	0	0	478	
1	0	0	0	0	477	
2	0	0	0	0	476	
3	0	0	0	0	475	
4	0	0	0	0	473	
5	0	0	0	0	472	
6	0	0	0	0	471	
7	0	0	0	0	470	
8	0	0	0	0	468	
9	0	0	0	0	467	
10	0	0	0	0	465	
11	0	0	0	0	463	
12	0	0	0	0	462	
13	0	0	0	0	459	
14	0	0	0	0	457	
15	0	0	0	0	456	
0	0	0	0	0	455	
1	0	0	0	0	454	
2	0	0	0	0	453	
3	0	0	0	0	452	
4	0	0	0	0	452	
5	0	0	0	0	451	
6	0	0	0	0	451	
7	0	0	0	0	451	
8	0	0	0	0	451	
9	0	0	0	0	452	
10	0	0	0	0	453	
11	0	0	0	0	455	
12	0	0	0	0	456	
13	0	0	0	0	458	
14	0	0	0	0	459	
15	0	0	0	0	461	
0	0	0	0	0	462	
1	0	0	0	0	465	
2	0	0	0	0	468	
3	0	0	0	0	472	
4	0	0	0	0	476	
5	0	0	0	0	480	
6	0	0	0	0	485	
7	0	0	0	0	489	
8	0	0	0	0	493	
9	0	0	0	0	498	
10	0	0	0	0	502	
11	0	0	0	0	505	
12	0	0	0	0	509	
13	0	0	0	0	511	
14	0	0	0	0	514	
15	0	0	0	0	515	
0	0	0	0	0	517	
1	0	0	0	0	519	
2	0	0	0	0	520	
3	0	0	0	0	522	
4	0	0	0	0	524	
5	0	0	0	0	525	
6	0	0	0	0	527	
7	0	0	0	0	529	
8	0	0	0	0	531	
9	0	0	0	0	532	
10	0	0	0	0	534	
11	0	0	0	0	535	
12	0	0	0	0	536	
13	0	0	0	0	537	
14	0	0	0	0	537	
15	0	0	0	0	536	
0	0	0	0	0	536	
1	0	0	0	0	536	
2	0	0	0	0	536	
3	0	0	0	0	536	
4	0	0	0	0	536	
5	0	0	0	0	536	
6	0	0	0	0	535	
7	0	0	0	0	535	
8	0	0	0	0	535	
9	0	0	0	0	535	
10	0	0	0	0	535	
11	0	0	0	0	535	
12	0	0	0	0	535	
13	0	0	0	0	536	
14	0	0	0	0	536	
15	0	0	0	0	536	
0	0	0	0	0	536	
1	0	0	0	0	536	
2	0	0	0	0	535	
3	0	0	0	0	535	
4	0	0	0	0	535	
5	0	0	0	0	534	
6	0	0	0	0	532	
7	0	0	0	0	532	
8	0	0	0	0	531	
9	0	0	0	0	531	
10	0	0	0	0	530	
11	0	0	0	0	530	
12	0	0	0	0	529	
13	0	0	0	0	529	
14	0	0	0	0	530	
15	0	0	0	0	530	
0	0	0	0	0	530	
1	0	0	0	0	529	
2	0	0	0	0	529	
3	0	0	0	0	530	
4	0	0	0	0	530	
5	0	0	0	0	532	
6	0	0	0	0	534	
7	0	0	0	0	537	
8	0	0	0	0	540	
9	0	0	0	0	543	
10	0	0	0	0	545	
11	0	0	0	0	548	
12	0	0	0	0	552	
13	0	0	0	0	557	
14	0	0	0	0	561	
15	0	0	0	0	565	
0	0	0	0	0	567	
1	0	0	0	0	569	
2	0	0	0	0	569	
3	0	0	0	0	567	
4	0	0	0	0	561	
5	0	0	0	0	549	
6	0	0	0	0	534	
7	0	0	0	0	518	
8	0	0	0	0	499	
9	0	0	0	0	478	
10	0	0	0	0	455	
11	0	0	0	0	432	
12	0	0	0	0	407	
13	0	0	0	0	382	
14	0	0	0	0	354	
15	0	0	0	0	325	
0	0	0	0	0	295	
1	0	0	0	0	263	
2	0	0	0	0	230	
3	0	0	0	0	195	
4	0	0	0	0	160	
5	0	0	0	0	123	
6	0	0	0	0	84	
7	0	0	0	0	45	
8	0	0	0	0	4	
9	0	0	0	0	0	
10	0	0	0	0	0	
11	0	0	0	0	0	
12	0	0	0	0	0	
13	0	0	0	0	0	
14	0	0	0	0	0	
15	0	0	0	0	0	
0	0	0	0	0	0	
1	0	0	0	0	0	
2	0	0	0	0	0	
3	0	0	0	0	0	
4	0	0	0	0	0	
5	0	0	0	0	0	
6	0	0	0	0	22	
7	0	0	0	0	74	
8	0	0	0	0	124	
9	0	0	0	0	173	
10	0	0	0	0	223	
11	0	0	0	0	274	
12	0	0	0	0	323	
13	0	0	0	0	370	
14	0	0	0	0	412	
15	0	0	0	0	452	
0	0	0	0	0	492	
1	0	0	0	0	527	
2	0	0	0	0	557	
3	0	0	0	0	582	
4	0	0	0	0	602	
5	0	0	0	0	617	
6	0	0	0	0	629	
7	0	0	0	0	640	
8	0	0	0	0	649	
9	0	0	0	0	657	
10	0	0	0	0	665	
11	0	0	0	0	671	
12	0	0	0	0	677	
13	0	0	0	0	681	
14	0	0	0	0	684	
15	0	0	0	0	687	
0	0	0	0	0	689	
1	0	0	0	0	690	
2	0	0	0	0	689	
3	0	0	0	0	688	
4	0	0	0	0	684	
5	0	0	0	0	682	
6	0	0	0	0	680	
7	0	0	0	0	677	
8	0	0	0	0	676	
9	0	0	0	0	673	
10	0	0	0	0	672	
11	0	0	0	0	670	
12	0	0	0	0	667	
13	0	0	0	0	664	
14	0	0	0	0	662	
15	0	0	0	0	659	
0	0	0	0	0	658	
1	0	0	0	0	658	
2	0	0	0	0	657	
3	0	0	0	0	656	
4	0	0	0	0	655	
5	0	0	0	0	654	
6	0	0	0	0	653	
7	0	0	0	0	651	
8	0	0	0	0	650	
9	0	0	0	0	649	
10	0	0	0	0	647	
11	0	0	0	0	647	
12	0	0	0	0	646	
13	0	0	0	0	644	
14	0	0	0	0	642	
15	0	0	0	0	641	
0	0	0	0	0	639	
1	0	0	0	0	638	
2	0	0	0	0	637	
3	0	0	0	0	636	
4	0	0	0	0	634	
5	0	0	0	0	633	
6	0	0	0	0	632	
7	0	0	0	0	631	
8	0	0	0	0	629	
9	0	0	0	0	627	
10	0	0	0	0	626	
11	0	0	0	0	625	
12	0	0	0	0	624	
13	0	0	0	0	622	
14	0	0	0	0	620	
15	0	0	0	0	619	
0	0	0	0	0	617	
1	0	0	0	0	616	
2	0	0	0	0	614	
3	0	0	0	0	612	
4	0	0	0	0	611	
5	0	0	0	0	609	
6	0	0	0	0	608	
7	0	0	0	0	607	
8	0	0	0	0	606	
9	0	0	0	0	605	
10	0	0	0	0	604	
11	0	0	0	0	603	
12	0	0	0	0	602	
13	0	0	0	0	601	
14	0	0	0	0	601	
15	0	0	0	0	600	
0	0	0	0	0	599	
1	0	0	0	0	598	
2	0	0	0	0	595	
3	0	0	0	0	593	
4	0	0	0	0	592	
5	0	0	0	0	590	
6	0	0	0	0	588	
7	0	0	0	0	585	
8	0	0	0	0	584	
9	0	0	0	0	583	
10	0	0	0	0	581	
11	0	0	0	0	579	
12	0	0	0	0	579	
13	0	0	0	0	578	
14	0	0	0	0	577	
15	0	0	0	0	576	
0	0	0	0	0	575	
1	0	0	0	0	574	
2	0	0	0	0	573	
3	0	0	0	0	572	
4	0	0	0	0	569	
5	0	0	0	0	568	
6	0	0	0	0	565	
7	0	0	0	0	563	
8	0	0	0	0	561	
9	0	0	0	0	560	
10	0	0	0	0	559	
11	0	0	0	0	557	
12	0	0	0	0	556	
13	0	0	0	0	554	
14	0	0	0	0	553	
15	0	0	0	0	553	
0	0	0	0	0	551	
1	0	0	0	0	550	
2	0	0	0	0	549	
3	0	0	0	0	547	
4	0	0	0	0	547	
5	0	0	0	0	546	
6	0	0	0	0	546	
7	0	0	0	0	545	
8	0	0	0	0	544	
9	0	0	0	0	544	
10	0	0	0	0	543	
11	0	0	0	0	543	
12	0	0	0	0	543	
13	0	0	0	0	541	
14	0	0	0	0	540	
15	0	0	0	0	538	
0	0	0	0	0	536	
1	0	0	0	0	535	
2	0	0	0	0	534	
3	0	0	0	0	533	
4	0	0	0	0	532	
5	0	0	0	0	532	
6	0	0	0	0	532	
7	0	0	0	0	531	
8	0	0	0	0	531	
9	0	0	0	0	529	
10	0	0	0	0	528	
11	0	0	0	0	527	
12	0	0	0	0	527	
13	0	0	0	0	526	
14	0	0	0	0	524	
15	0	0	0	0	522	
0	0	0	0	0	520	
1	0	0	0	0	517	
2	0	0	0	0	515	
3	0	0	0	0	513	
4	0	0	0	0	512	
5	0	0	0	0	511	
6	0	0	0	0	510	
7	0	0	0	0	508	
8	0	0	0	0	508	
9	0	0	0	0	506	
10	0	0	0	0	506	
11	0	0	0	0	506	
12	0	0	0	0	505	
13	0	0	0	0	505	
14	0	0	0	0	504	
15	0	0	0	0	504	
0	0	0	0	0	503	
1	0	0	0	0	502	
2	0	0	0	0	501	
3	0	0	0	0	500	
4	0	0	0	0	499	
5	0	0	0	0	498	
6	0	0	0	0	497	
7	0	0	0	0	495	
8	0	0	0	0	494	
9	0	0	0	0	493	
10	0	0	0	0	491	
11	0	0	0	0	490	
12	0	0	0	0	489	
13	0	0	0	0	489	
14	0	0	0	0	488	
15	0	0	0	0	488	
0	0	0	0	0	487	
1	0	0	0	0	487	
2	0	0	0	0	485	
3	0	0	0	0	484	
4	0	0	0	0	483	
5	0	0	0	0	483	
6	0	0	0	0	482	
7	0	0	0	0	480	
8	0	0	0	0	480	
9	0	0	0	0	479	
10	0	0	0	0	479	
11	0	0	0	0	478	
12	0	0	0	0	476	
13	0	0	0	0	476	
14	0	0	0	0	476	
15	0	0	0	0	476	
0	0	0	0	0	475	
1	0	0	0	0	476	
2	0	0	0	0	477	
3	0	0	0	0	477	
4	0	0	0	0	478	
5	0	0	0	0	478	
6	0	0	0	0	478	
7	0	0	0	0	480	
8	0	0	0	0	480	
9	0	0	0	0	482	
10	0	0	0	0	483	
11	0	0	0	0	484	
12	0	0	0	0	486	
13	0	0	0	0	488	
14	0	0	0	0	489	
15	0	0	0	0	491	
0	0	0	0	0	492	
1	0	0	0	0	493	
2	0	0	0	0	494	
3	0	0	0	0	496	
4	0	0	0	0	499	
5	0	0	0	0	502	
6	0	0	0	0	504	
7	0	0	0	0	506	
8	0	0	0	0	508	
9	0	0	0	0	510	
10	0	0	0	0	511	
11	0	0	0	0	513	
12	0	0	0	0	515	
13	0	0	0	0	517	
14	0	0	0	0	519	
15	0	0	0	0	520	
0	0	0	0	0	521	
1	0	0	0	0	523	
2	0	0	0	0	524	
3	0	0	0	0	525	
4	0	0	0	0	526	
5	0	0	0	0	528	
6	0	0	0	0	529	
7	0	0	0	0	530	
8	0	0	0	0	531	
9	0	0	0	0	532	
10	0	0	0	0	534	
11	0	0	0	0	535	
12	0	0	0	0	536	
13	0	0	0	0	536	
14	0	0	0	0	537	
15	0	0	0	0	539	
0	0	0	0	0	540	
1	0	0	0	0	540	
2	0	0	0	0	541	
3	0	0	0	0	542	
4	0	0	0	0	542	
5	0	0	0	0	542	
6	0	0	0	0	542	
7	0	0	0	0	542	
8	0	0	0	0	542	
9	0	0	0	0	542	
10	0	0	0	0	542	
11	0	0	0	0	543	
12	0	0	0	0	543	
13	0	0	0	0	544	
14	0	0	0	0	545	
15	0	0	0	0	545	
0	0	0	0	0	546	
1	0	0	0	0	547	
2	0	0	0	0	547	
3	0	0	0	0	547	
4	0	0	0	0	547	
5	0	0	0	0	547	
6	0	0	0	0	547	
7	0	0	0	0	547	
8	0	0	0	0	547	
9	0	0	0	0	546	
10	0	0	0	0	545	
11	0	0	0	0	545	
12	0	0	0	0	544	
13	0	0	0	0	544	
14	0	0	0	0	543	
15	0	0	0	0	543	
0	0	0	0	0	542	
1	0	0	0	0	542	
2	0	0	0	0	541	
3	0	0	0	0	541	
4	0	0	0	0	541	
5	0	0	0	0	541	
6	0	0	0	0	542	
7	0	0	0	0	542	
8	0	0	0	0	542	
9	0	0	0	0	541	
10	0	0	0	0	541	
11	0	0	0	0	540	
12	0	0	0	0	539	
13	0	0	0	0	538	
14	0	0	0	0	537	
15	0	0	0	0	536	
0	0	0	0	0	536	
1	0	0	0	0	536	
2	0	0	0	0	535	
3	0	0	0	0	535	
4	0	0	0	0	535	
5	0	0	0	0	535	
6	0	0	0	0	534	
7	0	0	0	0	534	
8	0	0	0	0	534	
9	0	0	0	0	533	
10	0	0	0	0	533	
11	0	0	0	0	533	
12	0	0	0	0	532	
13	0	0	0	0	532	
14	0	0	0	0	530	
15	0	0	0	0	529	
0	0	0	0	0	528	
1	0	0	0	0	527	
2	0	0	0	0	526	
3	0	0	0	0	526	
4	0	0	0	0	525	
5	0	0	0	0	524	
6	0	0	0	0	523	
7	0	0	0	0	523	
8	0	0	0	0	523	
9	0	0	0	0	523	
10	0	0	0	0	522	
11	0	0	0	0	522	
12	0	0	0	0	521	
13	0	0	0	0	521	
14	0	0	0	0	520	
15	0	0	0	0	519	
0	0	0	0	0	519	
1	0	0	0	0	518	
2	0	0	0	0	518	
3	0	0	0	0	516	
4	0	0	0	0	516	
5	0	0	0	0	515	
6	0	0	0	0	514	
7	0	0	0	0	513	
8	0	0	0	0	512	
9	0	0	0	0	511	
10	0	0	0	0	511	
11	0	0	0	0	510	
12	0	0	0	0	510	
13	0	0	0	0	510	
14	0	0	0	0	510	
15	0	0	0	0	509	
0	0	0	0	0	508	
1	0	0	0	0	508	
2	0	0	0	0	507	
3	0	0	0	0	507	
4	0	0	0	0	508	
5	0	0	0	0	508	
6	0	0	0	0	506	
7	0	0	0	0	505	
8	0	0	0	0	504	
9	0	0	0	0	504	
10	0	0	0	0	504	
11	0	0	0	0	504	
12	0	0	0	0	503	
13	0	0	0	0	503	
14	0	0	0	0	503	
15	0	0	0	0	503	
0	0	0	0	0	503	
1	0	0	0	0	503	
2	0	0	0	0	503	
3	0	0	0	0	503	
4	0	0	0	0	503	
5	0	0	0	0	502	
6	0	0	0	0	502	
7	0	0	0	0	502	
8	0	0	0	0	502	
9	0	0	0	0	501	
10	0	0	0	0	501	
11	0	0	0	0	501	
12	0	0	0	0	501	
13	0	0	0	0	501	
14	0	0	0	0	500	
15	0	0	0	0	499	
0	0	0	0	0	499	
1	0	0	0	0	499	
2	0	0	0	0	499	
3	0	0	0	0	499	
4	0	0	0	0	499	
5	0	0	0	0	499	
6	0	0	0	0	499	
7	0	0	0	0	499	
8	0	0	0	0	499	
9	0	0	0	0	499	
10	0	0	0	0	499	
11	0	0	0	0	499	
12	0	0	0	0	499	
13	0	0	0	0	499	
14	0	0	0	0	499	
15	0	0	0	0	498	
0	0	0	0	0	499	
1	0	0	0	0	498	
2	0	0	0	0	498	
3	0	0	0	0	498	
4	0	0	0	0	497	
5	0	0	0	0	497	
6	0	0	0	0	497	
7	0	0	0	0	497	
8	0	0	0	0	497	
9	0	0	0	0	497	
10	0	0	0	0	497	
11	0	0	0	0	498	
12	0	0	0	0	499	
13	0	0	0	0	500	
14	0	0	0	0	500	
15	0	0	0	0	501	
0	0	0	0	0	501	
1	0	0	0	0	501	
2	0	0	0	0	502	
3	0	0	0	0	501	
4	0	0	0	0	502	
5	0	0	0	0	502	
6	0	0	0	0	501	
7	0	0	0	0	501	
8	0	0	0	0	501	
9	0	0	0	0	501	
10	0	0	0	0	501	
11	0	0	0	0	501	
12	0	0	0	0	501	
13	0	0	0	0	502	
14	0	0	0	0	502	
15	0	0	0	0	503	
0	0	0	0	0	504	
1	0	0	0	0	504	
2	0	0	0	0	504	
3	0	0	0	0	504	
4	0	0	0	0	505	
5	0	0	0	0	505	
6	0	0	0	0	506	
7	0	0	0	0	507	
8	0	0	0	0	507	
9	0	0	0	0	506	
10	0	0	0	0	506	
11	0	0	0	0	506	
12	0	0	0	0	506	
13	0	0	0	0	507	
14	0	0	0	0	506	
15	0	0	0	0	507	
0	0	0	0	0	507	
1	0	0	0	0	507	
2	0	0	0	0	507	
3	0	0	0	0	508	
4	0	0	0	0	508	
5	0	0	0	0	508	
6	0	0	0	0	508	
7	0	0	0	0	508	
8	0	0	0	0	508	
9	0	0	0	0	508	
10	0	0	0	0	508	
11	0	0	0	0	508	
12	0	0	0	0	508	
13	0	0	0	0	508	
14	0	0	0	0	508	
15	0	0	0	0	507	
0	0	0	0	0	507	
1	0	0	0	0	506	
2	0	0	0	0	506	
3	0	0	0	0	506	
4	0	0	0	0	507	
5	0	0	0	0	508	
6	0	0	0	0	508	
7	0	0	0	0	508	
8	0	0	0	0	509	
9	0	0	0	0	510	
10	0	0	0	0	509	
11	0	0	0	0	510	
12	0	0	0	0	509	
13	0	0	0	0	509	
14	0	0	0	0	508	
15	0	0	0	0	508	
0	0	0	0	0	508	
1	0	0	0	0	507	
2	0	0	0	0	507	
3	0	0	0	0	506	
4	0	0	0	0	506	
5	0	0	0	0	506	
6	0	0	0	0	506	
7	0	0	0	0	506	
8	0	0	0	0	506	
9	0	0	0	0	506	
10	0	0	0	0	507	
11	0	0	0	0	508	
12	0	0	0	0	508	
13	0	0	0	0	508	
14	0	0	0	0	508	
15	0	0	0	0	508	
0	0	0	0	0	508	
1	0	0	0	0	508	
2	0	0	0	0	508	
3	0	0	0	0	507	
4	0	0	0	0	508	
5	0	0	0	0	508	
6	0	0	0	0	507	
7	0	0	0	0	506	
8	0	0	0	0	505	
9	0	0	0	0	505	
10	0	0	0	0	505	
11	0	0	0	0	505	
12	0	0	0	0	505	
13	0	0	0	0	505	
14	0	0	0	0	506	
15	0	0	0	0	506	
0	0	0	0	0	507	
1	0	0	0	0	508	
2	0	0	0	0	508	
3	0	0	0	0	508	
4	0	0	0	0	508	
5	0	0	0	0	507	
6	0	0	0	0	508	
7	0	0	0	0	507	
8	0	0	0	0	507	
9	0	0	0	0	507	
10	0	0	0	0	507	
11	0	0	0	0	507	
12	0	0	0	0	507	
13	0	0	0	0	506	
14	0	0	0	0	506	
15	0	0	0	0	505	
0	0	0	0	0	506	
1	0	0	0	0	506	
2	0	0	0	0	506	
3	0	0	0	0	506	
4	0	0	0	0	506	
5	0	0	0	0	507	
6	0	0	0	0	507	
7	0	0	0	0	507	
8	0	0	0	0	507	
9	0	0	0	0	507	
10	0	0	0	0	507	
11	0	0	0	0	507	
12	0	0	0	0	507	
13	0	0	0	0	507	
14	0	0	0	0	507	
15	0	0	0	0	506	
0	0	0	0	0	505	
1	0	0	0	0	504	
2	0	0	0	0	503	
3	0	0	0	0	502	
4	0	0	0	0	501	
5	0	0	0	0	500	
6	0	0	0	0	499	
7	0	0	0	0	498	
8	0	0	0	0	498	
9	0	0	0	0	496	
10	0	0	0	0	495	
11	0	0	0	0	493	
12	0	0	0	0	490	
13	0	0	0	0	487	
14	0	0	0	0	484	
15	0	0	0	0	480	
0	0	0	0	0	478	
1	0	0	0	0	476	
2	0	0	0	0	474	
3	0	0	0	0	472	
4	0	0	0	0	472	
5	0	0	0	0	471	
6	0	0	0	0	471	
7	0	0	0	0	471	
8	0	0	0	0	472	
9	0	0	0	0	472	
10	0	0	0	0	472	
11	0	0	0	0	474	
12	0	0	0	0	476	
13	0	0	0	0	477	
14	0	0	0	0	478	
15	0	0	0	0	479	
0	0	0	0	0	480	
1	0	0	0	0	480	
2	0	0	0	0	479	
3	0	0	0	0	477	
4	0	0	0	0	475	
5	0	0	0	0	474	
6	0	0	0	0	473	
7	0	0	0	0	472	
8	0	0	0	0	471	
9	0	0	0	0	470	
10	0	0	0	0	468	
11	0	0	0	0	467	
12	0	0	0	0	465	
13	0	0	0	0	464	
14	0	0	0	0	462	
15	0	0	0	0	460	
0	0	0	0	0	459	
1	0	0	0	0	458	
2	0	0	0	0	457	
3	0	0	0	0	457	
4	0	0	0	0	456	
5	0	0	0	0	456	
6	0	0	0	0	455	
7	0	0	0	0	454	
8	0	0	0	0	454	
9	0	0	0	0	454	
10	0	0	0	0	454	
11	0	0	0	0	455	
12	0	0	0	0	456	
13	0	0	0	0	457	
14	0	0	0	0	458	
15	0	0	0	0	460	
0	0	0	0	0	463	
1	0	0	0	0	465	
2	0	0	0	0	468	
3	0	0	0	0	471	
4	0	0	0	0	474	
5	0	0	0	0	478	
6	0	0	0	0	480	
7	0	0	0	0	483	
8	0	0	0	0	486	
9	0	0	0	0	489	
10	0	0	0	0	492	
11	0	0	0	0	496	
12	0	0	0	0	498	
13	0	0	0	0	501	
14	0	0	0	0	504	
15	0	0	0	0	507	
0	0	0	0	0	509	
1	0	0	0	0	512	
2	0	0	0	0	514	
3	0	0	0	0	516	
4	0	0	0	0	518	
5	0	0	0	0	519	
6	0	0	0	0	521	
7	0	0	0	0	522	
8	0	0	0	0	524	
9	0	0	0	0	527	
10	0	0	0	0	528	
11	0	0	0	0	530	
12	0	0	0	0	531	
13	0	0	0	0	532	
14	0	0	0	0	533	
15	0	0	0	0	534	
0	0	0	0	0	534	
1	0	0	0	0	533	
2	0	0	0	0	533	
3	0	0	0	0	532	
4	0	0	0	0	532	
5	0	0	0	0	532	
6	0	0	0	0	532	
7	0	0	0	0	532	
8	0	0	0	0	532	
9	0	0	0	0	531	
10	0	0	0	0	532	
11	0	0	0	0	532	
12	0	0	0	0	531	
13	0	0	0	0	532	
14	0	0	0	0	531	
15	0	0	0	0	532	
0	0	0	0	0	532	
1	0	0	0	0	532	
2	0	0	0	0	532	
3	0	0	0	0	532	
4	0	0	0	0	532	
5	0	0	0	0	531	
6	0	0	0	0	531	
7	0	0	0	0	530	
8	0	0	0	0	529	
9	0	0	0	0	529	
10	0	0	0	0	528	
11	0	0	0	0	528	
12	0	0	0	0	528	
13	0	0	0	0	528	
14	0	0	0	0	528	
15	0	0	0	0	528	
0	0	0	0	0	528	
1	0	0	0	0	527	
2	0	0	0	0	527	
3	0	0	0	0	528	
4	0	0	0	0	529	
5	0	0	0	0	530	
6	0	0	0	0	531	
7	0	0	0	0	533	
8	0	0	0	0	536	
9	0	0	0	0	537	
10	0	0	0	0	539	
11	0	0	0	0	542	
12	0	0	0	0	545	
13	0	0	0	0	549	
14	0	0	0	0	553	
15	0	0	0	0	558	
0	0	0	0	0	561	
1	0	0	0	0	564	
2	0	0	0	0	565	
3	0	0	0	0	566	
4	0	0	0	0	563	
5	0	0	0	0	556	
6	0	0	0	0	544	
7	0	0	0	0	530	
8	0	0	0	0	513	
9	0	0	0	0	495	
10	0	0	0	0	473	
11	0	0	0	0	451	
12	0	0	0	0	429	
13	0	0	0	0	404	
14	0	0	0	0	378	
15	0	0	0	0	351	
0	0	0	0	0	322	
1	0	0	0	0	290	
2	0	0	0	0	257	
3	0	0	0	0	223	
4	0	0	0	0	188	
5	0	0	0	0	153	
6	0	0	0	0	116	
7	0	0	0	0	78	
8	0	0	0	0	41	
9	0	0	0	0	2	
10	0	0	0	0	0	
11	0	0	0	0	0	
12	0	0	0	0	0	
13	0	0	0	0	0	
14	0	0	0	0	0	
15	0	0	0	0	0	
0	0	0	0	0	0	
1	0	0	0	0	0	
2	0	0	0	0	0	
3	0	0	0	0	0	
4	0	0	0	0	0	
5	0	0	0	0	0	
6	0	0	0	0	0	
7	0	0	0	0	24	
8	0	0	0	0	76	
9	0	0	0	0	126	
10	0	0	0	0	174	
11	0	0	0	0	224	
12	0	0	0	0	273	
13	0	0	0	0	320	
14	0	0	0	0	366	
15	0	0	0	0	409	
0	0	0	0	0	449	
1	0	0	0	0	487	
2	0	0	0	0	523	
3	0	0	0	0	551	
4	0	0	0	0	575	
5	0	0	0	0	594	
6	0	0	0	0	609	
7	0	0	0	0	622	
8	0	0	0	0	633	
9	0	0	0	0	643	
10	0	0	0	0	652	
11	0	0	0	0	660	
12	0	0	0	0	667	
13	0	0	0	0	672	
14	0	0	0	0	676	
15	0	0	0	0	680	
0	0	0	0	0	683	
1	0	0	0	0	685	
2	0	0	0	0	688	
3	0	0	0	0	688	
4	0	0	0	0	687	
5	0	0	0	0	685	
6	0	0	0	0	684	
7	0	0	0	0	682	
8	0	0	0	0	680	
9	0	0	0	0	677	
10	0	0	0	0	675	
11	0	0	0	0	673	
12	0	0	0	0	671	
13	0	0	0	0	668	
14	0	0	0	0	666	
15	0	0	0	0	664	
0	0	0	0	0	663	
1	0	0	0	0	661	
2	0	0	0	0	661	
3	0	0	0	0	660	
4	0	0	0	0	660	
5	0	0	0	0	659	
6	0	0	0	0	658	
7	0	0	0	0	658	
8	0	0	0	0	657	
9	0	0	0	0	657	
10	0	0	0	0	655	
11	0	0	0	0	653	
12	0	0	0	0	652	
13	0	0	0	0	650	
14	0	0	0	0	648	
15	0	0	0	0	647	
0	0	0	0	0	645	
1	0	0	0	0	644	
2	0	0	0	0	643	
3	0	0	0	0	642	
4	0	0	0	0	641	
5	0	0	0	0	640	
6	0	0	0	0	639	
7	0	0	0	0	638	
8	0	0	0	0	637	
9	0	0	0	0	636	
10	0	0	0	0	634	
11	0	0	0	0	633	
12	0	0	0	0	631	
13	0	0	0	0	631	
14	0	0	0	0	629	
15	0	0	0	0	627	
0	0	0	0	0	626	
1	0	0	0	0	624	
2	0	0	0	0	623	
3	0	0	0	0	621	
4	0	0	0	0	619	
5	0	0	0	0	617	
6	0	0	0	0	615	
7	0	0	0	0	614	
8	0	0	0	0	611	
9	0	0	0	0	609	
10	0	0	0	0	608	
11	0	0	0	0	608	
12	0	0	0	0	607	
13	0	0	0	0	606	
14	0	0	0	0	604	
15	0	0	0	0	604	
0	0	0	0	0	602	
1	0	0	0	0	601	
2	0	0	0	0	599	
3	0	0	0	0	598	
4	0	0	0	0	597	
5	0	0	0	0	595	
6	0	0	0	0	593	
7	0	0	0	0	591	
8	0	0	0	0	590	
9	0	0	0	0	588	
10	0	0	0	0	587	
11	0	0	0	0	586	
12	0	0	0	0	584	
13	0	0	0	0	583	
14	0	0	0	0	581	
15	0	0	0	0	580	
0	0	0	0	0	578	
1	0	0	0	0	577	
2	0	0	0	0	576	
3	0	0	0	0	575	
4	0	0	0	0	574	
5	0	0	0	0	572	
6	0	0	0	0	570	
7	0	0	0	0	568	
8	0	0	0	0	566	
9	0	0	0	0	565	
10	0	0	0	0	564	
11	0	0	0	0	563	
12	0	0	0	0	561	
13	0	0	0	0	560	
14	0	0	0	0	559	
15	0	0	0	0	558	
0	0	0	0	0	556	
1	0	0	0	0	555	
2	0	0	0	0	555	
3	0	0	0	0	554	
4	0	0	0	0	553	
5	0	0	0	0	552	
6	0	0	0	0	551	
7	0	0	0	0	551	
8	0	0	0	0	549	
9	0	0	0	0	548	
10	0	0	0	0	545	
11	0	0	0	0	544	
12	0	0	0	0	543	
13	0	0	0	0	542	
14	0	0	0	0	540	
15	0	0	0	0	540	
0	0	0	0	0	538	
1	0	0	0	0	537	
2	0	0	0	0	536	
3	0	0	0	0	534	
4	0	0	0	0	532	
5	0	0	0	0	531	
6	0	0	0	0	529	
7	0	0	0	0	528	
8	0	0	0	0	527	
9	0	0	0	0	527	
10	0	0	0	0	525	
11	0	0	0	0	525	
12	0	0	0	0	523	
13	0	0	0	0	521	
14	0	0	0	0	519	
15	0	0	0	0	518	
0	0	0	0	0	517	
1	0	0	0	0	516	
2	0	0	0	0	513	
3	0	0	0	0	512	
4	0	0	0	0	510	
5	0	0	0	0	508	
6	0	0	0	0	506	
7	0	0	0	0	504	
8	0	0	0	0	503	
9	0	0	0	0	502	
10	0	0	0	0	501	
11	0	0	0	0	500	
12	0	0	0	0	499	
13	0	0	0	0	499	
14	0	0	0	0	498	
15	0	0	0	0	497	
0	0	0	0	0	496	
1	0	0	0	0	494	
2	0	0	0	0	493	
3	0	0	0	0	492	
4	0	0	0	0	490	
5	0	0	0	0	489	
6	0	0	0	0	487	
7	0	0	0	0	486	
8	0	0	0	0	485	
9	0	0	0	0	484	
10	0	0	0	0	483	
11	0	0	0	0	483	
12	0	0	0	0	482	
13	0	0	0	0	481	
14	0	0	0	0	480	
15	0	0	0	0	480	
0	0	0	0	0	479	
1	0	0	0	0	478	
2	0	0	0	0	478	
3	0	0	0	0	478	
4	0	0	0	0	477	
5	0	0	0	0	476	
6	0	0	0	0	475	
7	0	0	0	0	473	
8	0	0	0	0	472	
9	0	0	0	0	472	
10	0	0	0	0	471	
11	0	0	0	0	471	
12	0	0	0	0	470	
13	0	0	0	0	470	
14	0	0	0	0	469	
15	0	0	0	0	468	
0	0	0	0	0	468	
1	0	0	0	0	468	
2	0	0	0	0	469	
3	0	0	0	0	469	
4	0	0	0	0	469	
5	0	0	0	0	470	
6	0	0	0	0	470	
7	0	0	0	0	471	
8	0	0	0	0	472	
9	0	0	0	0	473	
10	0	0	0	0	474	
11	0	0	0	0	476	
12	0	0	0	0	477	
13	0	0	0	0	478	
14	0	0	0	0	480	
15	0	0	0	0	482	
0	0	0	0	0	484	
1	0	0	0	0	486	
2	0	0	0	0	487	
3	0	0	0	0	490	
4	0	0	0	0	492	
5	0	0	0	0	494	
6	0	0	0	0	496	
7	0	0	0	0	499	
8	0	0	0	0	501	
9	0	0	0	0	503	
10	0	0	0	0	505	
11	0	0	0	0	507	
12	0	0	0	0	508	
13	0	0	0	0	510	
14	0	0	0	0	511	
15	0	0	0	0	512	
0	0	0	0	0	514	
1	0	0	0	0	516	
2	0	0	0	0	518	
3	0	0	0	0	520	
4	0	0	0	0	521	
5	0	0	0	0	523	
6	0	0	0	0	524	
7	0	0	0	0	526	
8	0	0	0	0	527	
9	0	0	0	0	528	
10	0	0	0	0	529	
11	0	0	0	0	529	
12	0	0	0	0	531	
13	0	0	0	0	532	
14	0	0	0	0	534	
15	0	0	0	0	536	
0	0	0	0	0	537	
1	0	0	0	0	538	
2	0	0	0	0	539	
3	0	0	0	0	539	
4	0	0	0	0	540	
5	0	0	0	0	540	
6	0	0	0	0	540	
7	0	0	0	0	540	
8	0	0	0	0	540	
9	0	0	0	0	540	
10	0	0	0	0	541	
11	0	0	0	0	541	
12	0	0	0	0	541	
13	0	0	0	0	541	
14	0	0	0	0	542	
15	0	0	0	0	542	
0	0	0	0	0	543	
1	0	0	0	0	543	
2	0	0	0	0	543	
3	0	0	0	0	544	
4	0	0	0	0	544	
5	0	0	0	0	544	
6	0	0	0	0	544	
7	0	0	0	0	544	
8	0	0	0	0	544	
9	0	0	0	0	543	
10	0	0	0	0	542	
11	0	0	0	0	542	
12	0	0	0	0	540	
13	0	0	0	0	540	
14	0	0	0	0	540	
15	0	0	0	0	540	
0	0	0	0	0	540	
1	0	0	0	0	540	
2	0	0	0	0	541	
3	0	0	0	0	542	
4	0	0	0	0	541	
5	0	0	0	0	541	
6	0	0	0	0	541	
7	0	0	0	0	541	
8	0	0	0	0	540	
9	0	0	0	0	539	
10	0	0	0	0	538	
11	0	0	0	0	537	
12	0	0	0	0	536	
13	0	0	0	0	535	
14	0	0	0	0	535	
15	0	0	0	0	534	
0	0	0	0	0	534	
1	0	0	0	0	533	
2	0	0	0	0	533	
3	0	0	0	0	532	
4	0	0	0	0	532	
5	0	0	0	0	532	
6	0	0	0	0	531	
7	0	0	0	0	531	
8	0	0	0	0	531	
9	0	0	0	0	531	
10	0	0	0	0	530	
11	0	0	0	0	530	
12	0	0	0	0	529	
13	0	0	0	0	529	
14	0	0	0	0	529	
15	0	0	0	0	528	
0	0	0	0	0	527	
1	0	0	0	0	526	
2	0	0	0	0	525	
3	0	0	0	0	524	
4	0	0	0	0	524	
5	0	0	0	0	523	
6	0	0	0	0	523	
7	0	0	0	0	522	
8	0	0	0	0	523	
9	0	0	0	0	522	
10	0	0	0	0	523	
11	0	0	0	0	523	
12	0	0	0	0	523	
13	0	0	0	0	523	
14	0	0	0	0	522	
15	0	0	0	0	523	
0	0	0	0	0	522	
1	0	0	0	0	521	
2	0	0	0	0	519	
3	0	0	0	0	518	
4	0	0	0	0	518	
5	0	0	0	0	516	
6	0	0	0	0	516	
7	0	0	0	0	515	
8	0	0	0	0	515	
9	0	0	0	0	514	
10	0	0	0	0	513	
11	0	0	0	0	513	
12	0	0	0	0	512	
13	0	0	0	0	511	
14	0	0	0	0	511	
15	0	0	0	0	510	
0	0	0	0	0	510	
1	0	0	0	0	509	
2	0	0	0	0	509	
3	0	0	0	0	509	
4	0	0	0	0	508	
5	0	0	0	0	507	
6	0	0	0	0	507	
7	0	0	0	0	506	
8	0	0	0	0	505	
9	0	0	0	0	504	
10	0	0	0	0	504	
11	0	0	0	0	503	
12	0	0	0	0	502	
13	0	0	0	0	502	
14	0	0	0	0	502	
15	0	0	0	0	502	
0	0	0	0	0	501	
1	0	0	0	0	501	
2	0	0	0	0	502	
3	0	0	0	0	502	
4	0	0	0	0	502	
5	0	0	0	0	502	
6	0	0	0	0	501	
7	0	0	0	0	502	
8	0	0	0	0	501	
9	0	0	0	0	500	
10	0	0	0	0	500	
11	0	0	0	0	499	
12	0	0	0	0	499	
13	0	0	0	0	498	
14	0	0	0	0	498	
15	0	0	0	0	498	
0	0	0	0	0	498	
1	0	0	0	0	498	
2	0	0	0	0	497	
3	0	0	0	0	497	
4	0	0	0	0	497	
5	0	0	0	0	497	
6	0	0	0	0	498	
7	0	0	0	0	498	
8	0	0	0	0	499	
9	0	0	0	0	499	
10	0	0	0	0	500	
11	0	0	0	0	500	
12	0	0	0	0	500	
13	0	0	0	0	500	
14	0	0	0	0	500	
15	0	0	0	0	499	
0	0	0	0	0	499	
1	0	0	0	0	498	
2	0	0	0	0	498	
3	0	0	0	0	498	
4	0	0	0	0	497	
5	0	0	0	0	497	
6	0	0	0	0	496	
7	0	0	0	0	496	
8	0	0	0	0	497	
9	0	0	0	0	497	
10	0	0	0	0	499	
11	0	0	0	0	499	
12	0	0	0	0	499	
13	0	0	0	0	499	
14	0	0	0	0	499	
15	0	0	0	0	500	
0	0	0	0	0	499	
1	0	0	0	0	500	
2	0	0	0	0	499	
3	0	0	0	0	499	
4	0	0	0	0	499	
5	0	0	0	0	499	
6	0	0	0	0	499	
7	0	0	0	0	499	
8	0	0	0	0	499	
9	0	0	0	0	500	
10	0	0	0	0	499	
11	0	0	0	0	500	
12	0	0	0	0	500	
13	0	0	0	0	501	
14	0	0	0	0	501	
15	0	0	0	0	501	
0	0	0	0	0	502	
1	0	0	0	0	502	
2	0	0	0	0	503	
3	0	0	0	0	504	
4	0	0	0	0	504	
5	0	0	0	0	504	
6	0	0	0	0	504	
7	0	0	0	0	504	
8	0	0	0	0	505	
9	0	0	0	0	504	
10	0	0	0	0	505	
11	0	0	0	0	504	
12	0	0	0	0	503	
13	0	0	0	0	503	
14	0	0	0	0	503	
15	0	0	0	0	503	
0	0	0	0	0	503	
1	0	0	0	0	504	
2	0	0	0	0	505	
3	0	0	0	0	505	
4	0	0	0	0	505	
5	0	0	0	0	507	
6	0	0	0	0	507	
7	0	0	0	0	508	
8	0	0	0	0	508	
9	0	0	0	0	508	
10	0	0	0	0	508	
11	0	0	0	0	507	
12	0	0	0	0	507	
13	0	0	0	0	506	
14	0	0	0	0	507	
15	0	0	0	0	506	
0	0	0	0	0	506	
1	0	0	0	0	506	
2	0	0	0	0	506	
3	0	0	0	0	506	
4	0	0	0	0	506	
5	0	0	0	0	507	
6	0	0	0	0	508	
7	0	0	0	0	507	
8	0	0	0	0	507	
9	0	0	0	0	508	
10	0	0	0	0	508	
11	0	0	0	0	509	
12	0	0	0	0	508	
13	0	0	0	0	508	
14	0	0	0	0	508	
15	0	0	0	0	508	
0	0	0	0	0	507	
1	0	0	0	0	506	
2	0	0	0	0	506	
3	0	0	0	0	505	
4	0	0	0	0	504	
5	0	0	0	0	505	
6	0	0	0	0	505	
7	0	0	0	0	505	
8	0	0	0	0	505	
9	0	0	0	0	505	
10	0	0	0	0	506	
11	0	0	0	0	506	
12	0	0	0	0	507	
13	0	0	0	0	507	
14	0	0	0	0	508	
15	0	0	0	0	508	
0	0	0	0	0	507	
1	0	0	0	0	507	
2	0	0	0	0	507	
3	0	0	0	0	507	
4	0	0	0	0	506	
5	0	0	0	0	506	
6	0	0	0	0	507	
7	0	0	0	0	506	
8	0	0	0	0	506	
9	0	0	0	0	505	
10	0	0	0	0	504	
11	0	0	0	0	504	
12	0	0	0	0	504	
13	0	0	0	0	504	
14	0	0	0	0	505	
15	0	0	0	0	505	
0	0	0	0	0	505	
1	0	0	0	0	505	
2	0	0	0	0	506	
3	0	0	0	0	506	
4	0	0	0	0	506	
5	0	0	0	0	506	
6	0	0	0	0	505	
7	0	0	0	0	505	
8	0	0	0	0	505	
9	0	0	0	0	505	
10	0	0	0	0	504	
11	0	0	0	0	504	
12	0	0	0	0	504	
13	0	0	0	0	503	
14	0	0	0	0	502	
15	0	0	0	0	502	
0	0	0	0	0	503	
1	0	0	0	0	504	
2	0	0	0	0	504	
3	0	0	0	0	505	
4	0	0	0	0	507	
5	0	0	0	0	507	
6	0	0	0	0	507	
7	0	0	0	0	508	
8	0	0	0	0	508	
9	0	0	0	0	508	
10	0	0	0	0	508	
11	0	0	0	0	507	
12	0	0	0	0	507	
13	0	0	0	0	507	
14	0	0	0	0	506	
15	0	0	0	0	507	
0	0	0	0	0	506	
1	0	0	0	0	505	
2	0	0	0	0	506	
3	0	0	0	0	506	
4	0	0	0	0	506	
5	0	0	0	0	506	
6	0	0	0	0	505	
7	0	0	0	0	505	
8	0	0	0	0	506	
9	0	0	0	0	506	
10	0	0	0	0	507	
11	0	0	0	0	507	
12	0	0	0	0	506	
13	0	0	0	0	506	
14	0	0	0	0	507	
15	0	0	0	0	507	
0	0	0	0	0	506	
1	0	0	0	0	505	
2	0	0	0	0	505	
3	0	0	0	0	504	
4	0	0	0	0	504	
5	0	0	0	0	503	
6	0	0	0	0	503	
7	0	0	0	0	503	
8	0	0	0	0	504	
9	0	0	0	0	504	
10	0	0	0	0	505	
11	0	0	0	0	505	
12	0	0	0	0	506	
13	0	0	0	0	506	
14	0	0	0	0	505	
15	0	0	0	0	507	
0	0	0	0	0	507	
1	0	0	0	0	507	
2	0	0	0	0	507	
3	0	0	0	0	507	
4	0	0	0	0	506	
5	0	0	0	0	505	
6	0	0	0	0	505	
7	0	0	0	0	504	
8	0	0	0	0	504	
9	0	0	0	0	504	
10	0	0	0	0	504	
11	0	0	0	0	504	
12	0	0	0	0	504	
13	0	0	0	0	504	
14	0	0	0	0	505	
15	0	0	0	0	506	
0	0	0	0	0	506	
1	0	0	0	0	506	
2	0	0	0	0	506	
3	0	0	0	0	506	
4	0	0	0	0	505	
5	0	0	0	0	506	
6	0	0	0	0	505	
7	0	0	0	0	504	
8	0	0	0	0	504	
9	0	0	0	0	504	
10	0	0	0	0	503	
11	0	0	0	0	503	
12	0	0	0	0	503	
13	0	0	0	0	503	
14	0	0	0	0	502	
15	0	0	0	0	503	
0	0	0	0	0	504	
1	0	0	0	0	504	
2	0	0	0	0	504	
3	0	0	0	0	504	
4	0	0	0	0	504	
5	0	0	0	0	504	
6	0	0	0	0	503	
7	0	0	0	0	503	
8	0	0	0	0	503	
9	0	0	0	0	503	
10	0	0	0	0	503	
11	0	0	0	0	503	
12	0	0	0	0	503	
13	0	0	0	0	502	
14	0	0	0	0	502	
15	0	0	0	0	502	
0	0	0	0	0	502	
1	0	0	0	0	502	
2	0	0	0	0	502	
3	0	0	0	0	502	
4	0	0	0	0	502	
5	0	0	0	0	503	
6	0	0	0	0	503	
7	0	0	0	0	503	
8	0	0	0	0	503	
9	0	0	0	0	503	
10	0	0	0	0	503	
11	0	0	0	0	504	
12	0	0	0	0	504	
13	0	0	0	0	503	
14	0	0	0	0	502	
15	0	0	0	0	502	
0	0	0	0	0	502	
1	0	0	0	0	500	
2	0	0	0	0	499	
3	0	0	0	0	498	
4	0	0	0	0	498	
5	0	0	0	0	497	
6	0	0	0	0	497	
7	0	0	0	0	496	
8	0	0	0	0	495	
9	0	0	0	0	495	
10	0	0	0	0	493	
11	0	0	0	0	492	
12	0	0	0	0	490	
13	0	0	0	0	488	
14	0	0	0	0	486	
15	0	0	0	0	483	
0	0	0	0	0	481	
1	0	0	0	0	478	
2	0	0	0	0	476	
3	0	0	0	0	475	
4	0	0	0	0	473	
5	0	0	0	0	472	
6	0	0	0	0	471	
7	0	0	0	0	470	
8	0	0	0	0	469	
9	0	0	0	0	470	
10	0	0	0	0	471	
11	0	0	0	0	471	
12	0	0	0	0	472	
13	0	0	0	0	473	
14	0	0	0	0	474	
15	0	0	0	0	475	
0	0	0	0	0	477	
1	0	0	0	0	478	
2	0	0	0	0	478	
3	0	0	0	0	477	
4	0	0	0	0	476	
5	0	0	0	0	475	
6	0	0	0	0	473	
7	0	0	0	0	472	
8	0	0	0	0	471	
9	0	0	0	0	470	
10	0	0	0	0	468	
11	0	0	0	0	467	
12	0	0	0	0	465	
13	0	0	0	0	464	
14	0	0	0	0	463	
15	0	0	0	0	462	
0	0	0	0	0	460	
1	0	0	0	0	459	
2	0	0	0	0	459	
3	0	0	0	0	457	
4	0	0	0	0	457	
5	0	0	0	0	456	
6	0	0	0	0	455	
7	0	0	0	0	455	
8	0	0	0	0	455	
9	0	0	0	0	454	
10	0	0	0	0	453	
11	0	0	0	0	453	
12	0	0	0	0	455	
13	0	0	0	0	455	
14	0	0	0	0	456	
15	0	0	0	0	457	
0	0	0	0	0	459	
1	0	0	0	0	460	
2	0	0	0	0	461	
3	0	0	0	0	464	
4	0	0	0	0	467	
5	0	0	0	0	470	
6	0	0	0	0	473	
7	0	0	0	0	476	
8	0	0	0	0	479	
9	0	0	0	0	481	
10	0	0	0	0	484	
11	0	0	0	0	487	
12	0	0	0	0	489	
13	0	0	0	0	492	
14	0	0	0	0	495	
15	0	0	0	0	497	
0	0	0	0	0	500	
1	0	0	0	0	504	
2	0	0	0	0	505	
3	0	0	0	0	508	
4	0	0	0	0	510	
5	0	0	0	0	512	
6	0	0	0	0	514	
7	0	0	0	0	516	
8	0	0	0	0	518	
9	0	0	0	0	519	
10	0	0	0	0	521	
11	0	0	0	0	524	
12	0	0	0	0	526	
13	0	0	0	0	528	
14	0	0	0	0	530	
15	0	0	0	0	531	
0	0	0	0	0	532	
1	0	0	0	0	532	
2	0	0	0	0	532	
3	0	0	0	0	532	
4	0	0	0	0	532	
5	0	0	0	0	531	
6	0	0	0	0	531	
7	0	0	0	0	530	
8	0	0	0	0	529	
9	0	0	0	0	529	
10	0	0	0	0	528	
11	0	0	0	0	528	
12	0	0	0	0	527	
13	0	0	0	0	527	
14	0	0	0	0	528	
15	0	0	0	0	528	
0	0	0	0	0	528	
1	0	0	0	0	529	
2	0	0	0	0	529	
3	0	0	0	0	529	
4	0	0	0	0	529	
5	0	0	0	0	529	
6	0	0	0	0	528	
7	0	0	0	0	528	
8	0	0	0	0	528	
9	0	0	0	0	527	
10	0	0	0	0	527	
11	0	0	0	0	526	
12	0	0	0	0	526	
13	0	0	0	0	525	
14	0	0	0	0	524	
15	0	0	0	0	524	
0	0	0	0	0	523	
1	0	0	0	0	523	
2	0	0	0	0	524	
3	0	0	0	0	524	
4	0	0	0	0	525	
5	0	0	0	0	526	
6	0	0	0	0	527	
7	0	0	0	0	529	
8	0	0	0	0	531	
9	0	0	0	0	535	
10	0	0	0	0	537	
11	0	0	0	0	540	
12	0	0	0	0	543	
13	0	0	0	0	546	
14	0	0	0	0	550	
15	0	0	0	0	553	
0	0	0	0	0	557	
1	0	0	0	0	560	
2	0	0	0	0	563	
3	0	0	0	0	564	
4	0	0	0	0	566	
5	0	0	0	0	564	
6	0	0	0	0	558	
7	0	0	0	0	547	
8	0	0	0	0	533	
9	0	0	0	0	518	
10	0	0	0	0	501	
11	0	0	0	0	480	
12	0	0	0	0	458	
13	0	0	0	0	435	
14	0	0	0	0	411	
15	0	0	0	0	386	
0	0	0	0	0	359	
1	0	0	0	0	332	
2	0	0	0	0	300	
3	0	0	0	0	269	
4	0	0	0	0	235	
5	0	0	0	0	200	
6	0	0	0	0	165	
7	0	0	0	0	129	
8	0	0	0	0	92	
9	0	0	0	0	55	
10	0	0	0	0	16	
11	0	0	0	0	0	
12	0	0	0	0	0	
13	0	0	0	0	0	
14	0	0	0	0	0	
15	0	0	0	0	0	
0	0	0	0	0	0	
1	0	0	0	0	0	
2	0	0	0	0	0	
3	0	0	0	0	0	
4	0	0	0	0	0	
5	0	0	0	0	0	
6	0	0	0	0	0	
7	0	0	0	0	0	
8	0	0	0	0	16	
9	0	0	0	0	69	
10	0	0	0	0	119	
11	0	0	0	0	167	
12	0	0	0	0	215	
13	0	0	0	0	264	
14	0	0	0	0	311	
15	0	0	0	0	358	
0	0	0	0	0	401	
1	0	0	0	0	442	
2	0	0	0	0	479	
3	0	0	0	0	515	
4	0	0	0	0	546	
5	0	0	0	0	571	
6	0	0	0	0	590	
7	0	0	0	0	606	
8	0	0	0	0	620	
9	0	0	0	0	632	
10	0	0	0	0	643	
11	0	0	0	0	652	
12	0	0	0	0	661	
13	0	0	0	0	668	
14	0	0	0	0	675	
15	0	0	0	0	679	
0	0	0	0	0	683	
1	0	0	0	0	686	
2	0	0	0	0	688	
3	0	0	0	0	689	
4	0	0	0	0	689	
5	0	0	0	0	687	
6	0	0	0	0	685	
7	0	0	0	0	684	
8	0	0	0	0	681	
9	0	0	0	0	678	
10	0	0	0	0	675	
11	0	0	0	0	673	
12	0	0	0	0	671	
13	0	0	0	0	669	
14	0	0	0	0	666	
15	0	0	0	0	663	
0	0	0	0	0	661	
1	0	0	0	0	659	
2	0	0	0	0	657	
3	0	0	0	0	655	
4	0	0	0	0	655	
5	0	0	0	0	654	
6	0	0	0	0	653	
7	0	0	0	0	652	
8	0	0	0	0	651	
9	0	0	0	0	650	
10	0	0	0	0	649	
11	0	0	0	0	649	
12	0	0	0	0	647	
13	0	0	0	0	645	
14	0	0	0	0	644	
15	0	0	0	0	642	
0	0	0	0	0	641	
1	0	0	0	0	639	
2	0	0	0	0	638	
3	0	0	0	0	636	
4	0	0	0	0	634	
5	0	0	0	0	632	
6	0	0	0	0	632	
7	0	0	0	0	630	
8	0	0	0	0	629	
9	0	0	0	0	627	
10	0	0	0	0	627	
11	0	0	0	0	625	
12	0	0	0	0	624	
13	0	0	0	0	622	
14	0	0	0	0	621	
15	0	0	0	0	619	
0	0	0	0	0	618	
1	0	0	0	0	616	
2	0	0	0	0	615	
3	0	0	0	0	613	
4	0	0	0	0	611	
5	0	0	0	0	610	
6	0	0	0	0	608	
7	0	0	0	0	606	
8	0	0	0	0	604	
9	0	0	0	0	603	
10	0	0	0	0	601	
11	0	0	0	0	601	
12	0	0	0	0	600	
13	0	0	0	0	599	
14	0	0	0	0	599	
15	0	0	0	0	598	
0	0	0	0	0	598	
1	0	0	0	0	596	
2	0	0	0	0	595	
3	0	0	0	0	595	
4	0	0	0	0	593	
5	0	0	0	0	591	
6	0	0	0	0	589	
7	0	0	0	0	588	
8	0	0	0	0	586	
9	0	0	0	0	585	
10	0	0	0	0	583	
11	0	0	0	0	582	
12	0	0	0	0	580	
13	0	0	0	0	579	
14	0	0	0	0	577	
15	0	0	0	0	576	
0	0	0	0	0	575	
1	0	0	0	0	573	
2	0	0	0	0	573	
3	0	0	0	0	572	
4	0	0	0	0	570	
5	0	0	0	0	569	
6	0	0	0	0	568	
7	0	0	0	0	567	
8	0	0	0	0	564	
9	0	0	0	0	563	
10	0	0	0	0	561	
11	0	0	0	0	560	
12	0	0	0	0	558	
13	0	0	0	0	556	
14	0	0	0	0	555	
15	0	0	0	0	554	
0	0	0	0	0	553	
1	0	0	0	0	551	
2	0	0	0	0	550	
3	0	0	0	0	549	
4	0	0	0	0	548	
5	0	0	0	0	548	
6	0	0	0	0	547	
7	0	0	0	0	547	
8	0	0	0	0	545	
9	0	0	0	0	544	
10	0	0	0	0	544	
11	0	0	0	0	543	
12	0	0	0	0	542	
13	0	0	0	0	542	
14	0	0	0	0	540	
15	0	0	0	0	538	
0	0	0	0	0	536	
1	0	0	0	0	536	
2	0	0	0	0	534	
3	0	0	0	0	532	
4	0	0	0	0	531	
5	0	0	0	0	530	
6	0	0	0	0	529	
7	0	0	0	0	528	
8	0	0	0	0	527	
9	0	0	0	0	526	
10	0	0	0	0	525	
11	0	0	0	0	524	
12	0	0	0	0	523	
13	0	0	0	0	522	
14	0	0	0	0	520	
15	0	0	0	0	519	
0	0	0	0	0	518	
1	0	0	0	0	517	
2	0	0	0	0	515	
3	0	0	0	0	513	
4	0	0	0	0	511	
5	0	0	0	0	509	
6	0	0	0	0	507	
7	0	0	0	0	505	
8	0	0	0	0	503	
9	0	0	0	0	502	
10	0	0	0	0	500	
11	0	0	0	0	499	
12	0	0	0	0	498	
13	0	0	0	0	497	
14	0	0	0	0	496	
15	0	0	0	0	495	
0	0	0	0	0	495	
1	0	0	0	0	493	
2	0	0	0	0	492	
3	0	0	0	0	491	
4	0	0	0	0	490	
5	0	0	0	0	489	
6	0	0	0	0	487	
7	0	0	0	0	487	
8	0	0	0	0	485	
9	0	0	0	0	484	
10	0	0	0	0	482	
11	0	0	0	0	480	
12	0	0	0	0	480	
13	0	0	0	0	478	
14	0	0	0	0	478	
15	0	0	0	0	478	
0	0	0	0	0	477	
1	0	0	0	0	476	
2	0	0	0	0	476	
3	0	0	0	0	475	
4	0	0	0	0	475	
5	0	0	0	0	474	
6	0	0	0	0	474	
7	0	0	0	0	474	
8	0	0	0	0	473	
9	0	0	0	0	472	
10	0	0	0	0	471	
11	0	0	0	0	470	
12	0	0	0	0	468	
13	0	0	0	0	468	
14	0	0	0	0	467	
15	0	0	0	0	466	
0	0	0	0	0	465	
1	0	0	0	0	465	
2	0	0	0	0	464	
3	0	0	0	0	464	
4	0	0	0	0	465	
5	0	0	0	0	466	
6	0	0	0	0	466	
7	0	0	0	0	467	
8	0	0	0	0	468	
9	0	0	0	0	470	
10	0	0	0	0	470	
11	0	0	0	0	472	
12	0	0	0	0	473	
13	0	0	0	0	474	
14	0	0	0	0	475	
15	0	0	0	0	476	
0	0	0	0	0	477	
1	0	0	0	0	479	
2	0	0	0	0	481	
3	0	0	0	0	483	
4	0	0	0	0	484	
5	0	0	0	0	486	
6	0	0	0	0	488	
7	0	0	0	0	490	
8	0	0	0	0	492	
9	0	0	0	0	494	
10	0	0	0	0	496	
11	0	0	0	0	499	
12	0	0	0	0	502	
13	0	0	0	0	504	
14	0	0	0	0	506	
15	0	0	0	0	509	
0	0	0	0	0	511	
1	0	0	0	0	513	
2	0	0	0	0	515	
3	0	0	0	0	516	
4	0	0	0	0	518	
5	0	0	0	0	519	
6	0	0	0	0	521	
7	0	0	0	0	523	
8	0	0	0	0	525	
9	0	0	0	0	527	
10	0	0	0	0	529	
11	0	0	0	0	531	
12	0	0	0	0	533	
13	0	0	0	0	535	
14	0	0	0	0	536	
15	0	0	0	0	538	
0	0	0	0	0	540	
1	0	0	0	0	541	
2	0	0	0	0	542	
3	0	0	0	0	543	
4	0	0	0	0	544	
5	0	0	0	0	545	
6	0	0	0	0	546	
7	0	0	0	0	546	
8	0	0	0	0	547	
9	0	0	0	0	547	
10	0	0	0	0	548	
11	0	0	0	0	548	
12	0	0	0	0	548	
13	0	0	0	0	549	
14	0	0	0	0	548	
15	0	0	0	0	549	
0	0	0	0	0	550	
1	0	0	0	0	550	
2	0	0	0	0	551	
3	0	0	0	0	551	
4	0	0	0	0	551	
5	0	0	0	0	551	
6	0	0	0	0	552	
7	0	0	0	0	553	
8	0	0	0	0	553	
9	0	0	0	0	552	
10	0	0	0	0	551	
11	0	0	0	0	550	
12	0	0	0	0	550	
13	0	0	0	0	548	
14	0	0	0	0	548	
15	0	0	0	0	548	
0	0	0	0	0	547	
1	0	0	0	0	546	
2	0	0	0	0	546	
3	0	0	0	0	546	
4	0	0	0	0	546	
5	0	0	0	0	546	
6	0	0	0	0	546	
7	0	0	0	0	546	
8	0	0	0	0	546	
9	0	0	0	0	547	
10	0	0	0	0	546	
11	0	0	0	0	546	
12	0	0	0	0	545	
13	0	0	0	0	545	
14	0	0	0	0	544	
15	0	0	0	0	543	
0	0	0	0	0	542	
1	0	0	0	0	541	
2	0	0	0	0	540	
3	0	0	0	0	539	
4	0	0	0	0	539	
5	0	0	0	0	538	
6	0	0	0	0	537	
7	0	0	0	0	537	
8	0	0	0	0	538	
9	0	0	0	0	537	
10	0	0	0	0	538	
11	0	0	0	0	537	
12	0	0	0	0	537	
13	0	0	0	0	537	
14	0	0	0	0	538	
15	0	0	0	0	538	
0	0	0	0	0	537	
1	0	0	0	0	537	
2	0	0	0	0	536	
3	0	0	0	0	534	
4	0	0	0	0	533	
5	0	0	0	0	532	
6	0	0	0	0	531	
7	0	0	0	0	530	
8	0	0	0	0	529	
9	0	0	0	0	529	
10	0	0	0	0	528	
11	0	0	0	0	528	
12	0	0	0	0	529	
13	0	0	0	0	528	
14	0	0	0	0	529	
15	0	0	0	0	529	
0	0	0	0	0	529	
1	0	0	0	0	529	
2	0	0	0	0	528	
3	0	0	0	0	528	
4	0	0	0	0	527	
5	0	0	0	0	527	
6	0	0	0	0	525	
7	0	0	0	0	525	
8	0	0	0	0	524	
9	0	0	0	0	523	
10	0	0	0	0	522	
11	0	0	0	0	522	
12	0	0	0	0	520	
13	0	0	0	0	519	
14	0	0	0	0	518	
15	0	0	0	0	518	
0	0	0	0	0	518	
1	0	0	0	0	518	
2	0	0	0	0	518	
3	0	0	0	0	518	
4	0	0	0	0	518	
5	0	0	0	0	517	
6	0	0	0	0	517	
7	0	0	0	0	517	
8	0	0	0	0	516	
9	0	0	0	0	515	
10	0	0	0	0	514	
11	0	0	0	0	512	
12	0	0	0	0	512	
13	0	0	0	0	510	
14	0	0	0	0	510	
15	0	0	0	0	509	
0	0	0	0	0	509	
1	0	0	0	0	508	
2	0	0	0	0	508	
3	0	0	0	0	508	
4	0	0	0	0	509	
5	0	0	0	0	509	
6	0	0	0	0	508	
7	0	0	0	0	508	
8	0	0	0	0	508	
9	0	0	0	0	507	
10	0	0	0	0	507	
11	0	0	0	0	506	
12	0	0	0	0	505	
13	0	0	0	0	505	
14	0	0	0	0	505	
15	0	0	0	0	505	
0	0	0	0	0	505	
1	0	0	0	0	504	
2	0	0	0	0	504	
3	0	0	0	0	504	
4	0	0	0	0	504	
5	0	0	0	0	504	
6	0	0	0	0	503	
7	0	0	0	0	503	
8	0	0	0	0	503	
9	0	0	0	0	502	
10	0	0	0	0	502	
11	0	0	0	0	503	
12	0	0	0	0	504	
13	0	0	0	0	504	
14	0	0	0	0	504	
15	0	0	0	0	504	
0	0	0	0	0	504	
1	0	0	0	0	504	
2	0	0	0	0	504	
3	0	0	0	0	503	
4	0	0	0	0	502	
5	0	0	0	0	502	
6	0	0	0	0	502	
7	0	0	0	0	502	
8	0	0	0	0	502	
9	0	0	0	0	502	
10	0	0	0	0	502	
11	0	0	0	0	502	
12	0	0	0	0	503	
13	0	0	0	0	502	
14	0	0	0	0	502	
15	0	0	0	0	502	
0	0	0	0	0	502	
1	0	0	0	0	502	
2	0	0	0	0	502	
3	0	0	0	0	502	
4	0	0	0	0	502	
5	0	0	0	0	502	
6	0	0	0	0	502	
7	0	0	0	0	502	
8	0	0	0	0	502	
9	0	0	0	0	501	
10	0	0	0	0	501	
11	0	0	0	0	501	
12	0	0	0	0	501	
13	0	0	0	0	501	
14	0	0	0	0	500	
15	0	0	0	0	501	
0	0	0	0	0	501	
1	0	0	0	0	502	
2	0	0	0	0	502	
3	0	0	0	0	502	
4	0	0	0	0	503	
5	0	0	0	0	503	
6	0	0	0	0	504	
7	0	0	0	0	504	
8	0	0	0	0	504	
9	0	0	0	0	504	
10	0	0	0	0	504	
11	0	0	0	0	504	
12	0	0	0	0	504	
13	0	0	0	0	504	
14	0	0	0	0	504	
15	0	0	0	0	505	
0	0	0	0	0	504	
1	0	0	0	0	504	
2	0	0	0	0	504	
3	0	0	0	0	505	
4	0	0	0	0	505	
5	0	0	0	0	505	
6	0	0	0	0	506	
7	0	0	0	0	506	
8	0	0	0	0	506	
9	0	0	0	0	507	
10	0	0	0	0	507	
11	0	0	0	0	508	
12	0	0	0	0	508	
13	0	0	0	0	508	
14	0	0	0	0	508	
15	0	0	0	0	508	
0	0	0	0	0	508	
1	0	0	0	0	507	
2	0	0	0	0	507	
3	0	0	0	0	507	
4	0	0	0	0	507	
5	0	0	0	0	507	
6	0	0	0	0	507	
7	0	0	0	0	508	
8	0	0	0	0	508	
9	0	0	0	0	507	
10	0	0	0	0	507	
11	0	0	0	0	508	
12	0	0	0	0	508	
13	0	0	0	0	508	
14	0	0	0	0	508	
15	0	0	0	0	509	
0	0	0	0	0	509	
1	0	0	0	0	509	
2	0	0	0	0	509	
3	0	0	0	0	508	
4	0	0	0	0	508	
5	0	0	0	0	507	
6	0	0	0	0	507	
7	0	0	0	0	506	
8	0	0	0	0	505	
9	0	0	0	0	505	
10	0	0	0	0	504	
11	0	0	0	0	504	
12	0	0	0	0	504	
13	0	0	0	0	505	
14	0	0	0	0	506	
15	0	0	0	0	506	
0	0	0	0	0	506	
1	0	0	0	0	506	
2	0	0	0	0	506	
3	0	0	0	0	507	
4	0	0	0	0	507	
5	0	0	0	0	507	
6	0	0	0	0	506	
7	0	0	0	0	505	
8	0	0	0	0	505	
9	0	0	0	0	504	
10	0	0	0	0	504	
11	0	0	0	0	504	
12	0	0	0	0	503	
13	0	0	0	0	503	
14	0	0	0	0	503	
15	0	0	0	0	503	
0	0	0	0	0	503	
1	0	0	0	0	503	
2	0	0	0	0	504	
3	0	0	0	0	504	
4	0	0	0	0	505	
5	0	0	0	0	506	
6	0	0	0	0	506	
7	0	0	0	0	506	
8	0	0	0	0	506	
9	0	0	0	0	505	
10	0	0	0	0	505	
11	0	0	0	0	504	
12	0	0	0	0	504	
13	0	0	0	0	504	
14	0	0	0	0	504	
15	0	0	0	0	504	
0	0	0	0	0	504	
1	0	0	0	0	504	
2	0	0	0	0	504	
3	0	0	0	0	504	
4	0	0	0	0	504	
5	0	0	0	0	504	
6	0	0	0	0	504	
7	0	0	0	0	504	
8	0	0	0	0	504	
9	0	0	0	0	504	
10	0	0	0	0	505	
11	0	0	0	0	505	
12	0	0	0	0	505	
13	0	0	0	0	505	
14	0	0	0	0	504	
15	0	0	0	0	504	
0	0	0	0	0	504	
1	0	0	0	0	503	
2	0	0	0	0	503	
3	0	0	0	0	502	
4	0	0	0	0	502	
5	0	0	0	0	503	
6	0	0	0	0	502	
7	0	0	0	0	503	
8	0	0	0	0	503	
9	0	0	0	0	503	
10	0	0	0	0	504	
11	0	0	0	0	505	
12	0	0	0	0	505	
13	0	0	0	0	505	
14	0	0	0	0	505	
15	0	0	0	0	506	
0	0	0	0	0	506	
1	0	0	0	0	505	
2	0	0	0	0	505	
3	0	0	0	0	505	
4	0	0	0	0	505	
5	0	0	0	0	506	
6	0	0	0	0	505	
7	0	0	0	0	505	
8	0	0	0	0	505	
9	0	0	0	0	504	
10	0	0	0	0	504	
11	0	0	0	0	504	
12	0	0	0	0	504	
13	0	0	0	0	505	
14	0	0	0	0	505	
15	0	0	0	0	505	
0	0	0	0	0	506	
1	0	0	0	0	506	
2	0	0	0	0	507	
3	0	0	0	0	507	
4	0	0	0	0	507	
5	0	0	0	0	506	
6	0	0	0	0	506	
7	0	0	0	0	505	
8	0	0	0	0	505	
9	0	0	0	0	505	
10	0	0	0	0	505	
11	0	0	0	0	504	
12	0	0	0	0	504	
13	0	0	0	0	504	
14	0	0	0	0	504	
15	0	0	0	0	504	
0	0	0	0	0	505	
1	0	0	0	0	505	
2	0	0	0	0	506	
3	0	0	0	0	506	
4	0	0	0	0	506	
5	0	0	0	0	506	
6	0	0	0	0	506	
7	0	0	0	0	506	
8	0	0	0	0	505	
9	0	0	0	0	505	
10	0	0	0	0	505	
11	0	0	0	0	505	
12	0	0	0	0	504	
13	0	0	0	0	504	
14	0	0	0	0	503	
15	0	0	0	0	502	
0	0	0	0	0	502	
1	0	0	0	0	500	
2	0	0	0	0	501	
3	0	0	0	0	501	
4	0	0	0	0	501	
5	0	0	0	0	501	
6	0	0	0	0	501	
7	0	0	0	0	502	
8	0	0	0	0	502	
9	0	0	0	0	502	
10	0	0	0	0	502	
11	0	0	0	0	503	
12	0	0	0	0	503	
13	0	0	0	0	503	
14	0	0	0	0	502	
15	0	0	0	0	502	
0	0	0	0	0	502	
1	0	0	0	0	501	
2	0	0	0	0	501	
3	0	0	0	0	501	
4	0	0	0	0	501	
5	0	0	0	0	501	
6	0	0	0	0	501	
7	0	0	0	0	500	
8	0	0	0	0	500	
9	0	0	0	0	501	
10	0	0	0	0	501	
11	0	0	0	0	501	
12	0	0	0	0	501	
13	0	0	0	0	501	
14	0	0	0	0	501	
15	0	0	0	0	502	
0	0	0	0	0	501	
1	0	0	0	0	501	
2	0	0	0	0	501	
3	0	0	0	0	500	
4	0	0	0	0	500	
5	0	0	0	0	500	
6	0	0	0	0	499	
7	0	0	0	0	500	
8	0	0	0	0	500	
9	0	0	0	0	500	
10	0	0	0	0	500	
11	0	0	0	0	500	
12	0	0	0	0	500	
13	0	0	0	0	501	
14	0	0	0	0	501	
15	0	0	0	0	501	
0	0	0	0	0	501	
1	0	0	0	0	501	
2	0	0	0	0	501	
3	0	0	0	0	501	
4	0	0	0	0	501	
5	0	0	0	0	501	
6	0	0	0	0	500	
7	0	0	0	0	499	
8	0	0	0	0	499	
9	0	0	0	0	499	
10	0	0	0	0	499	
11	0	0	0	0	497	
12	0	0	0	0	496	
13	0	0	0	0	496	
14	0	0	0	0	495	
15	0	0	0	0	495	
0	0	0	0	0	495	
1	0	0	0	0	494	
2	0	0	0	0	494	
3	0	0	0	0	492	
4	0	0	0	0	491	
5	0	0	0	0	488	
6	0	0	0	0	486	
7	0	0	0	0	484	
8	0	0	0	0	481	
9	0	0	0	0	478	
10	0	0	0	0	476	
11	0	0	0	0	474	
12	0	0	0	0	472	
13	0	0	0	0	471	
14	0	0	0	0	470	
15	0	0	0	0	470	
0	0	0	0	0	468	
1	0	0	0	0	469	
2	0	0	0	0	469	
3	0	0	0	0	471	
4	0	0	0	0	472	
5	0	0	0	0	472	
6	0	0	0	0	473	
7	0	0	0	0	474	
8	0	0	0	0	475	
9	0	0	0	0	476	
10	0	0	0	0	476	
11	0	0	0	0	476	
12	0	0	0	0	476	
13	0	0	0	0	475	
14	0	0	0	0	473	
15	0	0	0	0	472	
0	0	0	0	0	472	
1	0	0	0	0	472	
2	0	0	0	0	471	
3	0	0	0	0	471	
4	0	0	0	0	470	
5	0	0	0	0	468	
6	0	0	0	0	467	
7	0	0	0	0	465	
8	0	0	0	0	464	
9	0	0	0	0	462	
10	0	0	0	0	461	
11	0	0	0	0	459	
12	0	0	0	0	458	
13	0	0	0	0	457	
14	0	0	0	0	458	
15	0	0	0	0	458	
0	0	0	0	0	457	
1	0	0	0	0	456	
2	0	0	0	0	457	
3	0	0	0	0	457	
4	0	0	0	0	458	
5	0	0	0	0	459	
6	0	0	0	0	460	
7	0	0	0	0	461	
8	0	0	0	0	463	
9	0	0	0	0	465	
10	0	0	0	0	467	
11	0	0	0	0	469	
12	0	0	0	0	472	
13	0	0	0	0	474	
14	0	0	0	0	477	
15	0	0	0	0	480	
0	0	0	0	0	484	
1	0	0	0	0	487	
2	0	0	0	0	489	
3	0	0	0	0	492	
4	0	0	0	0	495	
5	0	0	0	0	497	
6	0	0	0	0	500	
7	0	0	0	0	502	
8	0	0	0	0	504	
9	0	0	0	0	506	
10	0	0	0	0	508	
11	0	0	0	0	510	
12	0	0	0	0	512	
13	0	0	0	0	513	
14	0	0	0	0	515	
15	0	0	0	0	517	
0	0	0	0	0	519	
1	0	0	0	0	521	
2	0	0	0	0	523	
3	0	0	0	0	525	
4	0	0	0	0	527	
5	0	0	0	0	529	
6	0	0	0	0	529	
7	0	0	0	0	530	
8	0	0	0	0	530	
9	0	0	0	0	529	
10	0	0	0	0	529	
11	0	0	0	0	530	
12	0	0	0	0	530	
13	0	0	0	0	531	
14	0	0	0	0	530	
15	0	0	0	0	530	
0	0	0	0	0	529	
1	0	0	0	0	529	
2	0	0	0	0	529	
3	0	0	0	0	529	
4	0	0	0	0	530	
5	0	0	0	0	530	
6	0	0	0	0	530	
7	0	0	0	0	530	
8	0	0	0	0	530	
9	0	0	0	0	530	
10	0	0	0	0	530	
11	0	0	0	0	531	
12	0	0	0	0	531	
13	0	0	0	0	530	
14	0	0	0	0	530	
15	0	0	0	0	530	
0	0	0	0	0	530	
1	0	0	0	0	529	
2	0	0	0	0	528	
3	0	0	0	0	527	
4	0	0	0	0	527	
5	0	0	0	0	527	
6	0	0	0	0	527	
7	0	0	0	0	527	
8	0	0	0	0	527	
9	0	0	0	0	526	
10	0	0	0	0	526	
11	0	0	0	0	526	
12	0	0	0	0	527	
13	0	0	0	0	527	
14	0	0	0	0	529	
15	0	0	0	0	531	
0	0	0	0	0	533	
1	0	0	0	0	536	
2	0	0	0	0	538	
3	0	0	0	0	541	
4	0	0	0	0	544	
5	0	0	0	0	547	
6	0	0	0	0	550	
7	0	0	0	0	554	
8	0	0	0	0	558	
9	0	0	0	0	561	
10	0	0	0	0	563	
11	0	0	0	0	563	
12	0	0	0	0	563	
13	0	0	0	0	559	
14	0	0	0	0	550	
15	0	0	0	0	538	
0	0	0	0	0	524	
1	0	0	0	0	508	
2	0	0	0	0	491	
3	0	0	0	0	469	
4	0	0	0	0	447	
5	0	0	0	0	423	
6	0	0	0	0	399	
7	0	0	0	0	373	
8	0	0	0	0	345	
9	0	0	0	0	316	
10	0	0	0	0	285	
11	0	0	0	0	252	
12	0	0	0	0	218	
13	0	0	0	0	184	
14	0	0	0	0	149	
15	0	0	0	0	113	
0	0	0	0	0	77	
1	0	0	0	0	39	
2	0	0	0	0	2	
3	0	0	0	0	0	
4	0	0	0	0	0	
5	0	0	0	0	0	
6	0	0	0	0	0	
7	0	0	0	0	0	
8	0	0	0	0	0	
9	0	0	0	0	0	
10	0	0	0	0	0	
11	0	0	0	0	0	
12	0	0	0	0	0	
13	0	0	0	0	0	
14	0	0	0	0	0	
15	0	0	0	0	0	
0	0	0	0	0	35	
1	0	0	0	0	88	
2	0	0	0	0	137	
3	0	0	0	0	185	
4	0	0	0	0	233	
5	0	0	0	0	282	
6	0	0	0	0	328	
7	0	0	0	0	373	
8	0	0	0	0	415	
9	0	0	0	0	455	
10	0	0	0	0	492	
11	0	0	0	0	526	
12	0	0	0	0	555	
13	0	0	0	0	578	
14	0	0	0	0	595	
15	0	0	0	0	612	
0	0	0	0	0	626	
1	0	0	0	0	637	
2	0	0	0	0	647	
3	0	0	0	0	655	
4	0	0	0	0	663	
5	0	0	0	0	671	
6	0	0	0	0	676	
7	0	0	0	0	681	
8	0	0	0	0	684	
9	0	0	0	0	686	
10	0	0	0	0	688	
11	0	0	0	0	690	
12	0	0	0	0	690	
13	0	0	0	0	688	
14	0	0	0	0	686	
15	0	0	0	0	683	
0	0	0	0	0	681	
1	0	0	0	0	679	
2	0	0	0	0	676	
3	0	0	0	0	673	
4	0	0	0	0	671	
5	0	0	0	0	668	
6	0	0	0	0	666	
7	0	0	0	0	663	
8	0	0	0	0	660	
9	0	0	0	0	659	
10	0	0	0	0	657	
11	0	0	0	0	655	
12	0	0	0	0	655	
13	0	0	0	0	653	
14	0	0	0	0	652	
15	0	0	0	0	652	
0	0	0	0	0	651	
1	0	0	0	0	649	
2	0	0	0	0	649	
3	0	0	0	0	648	
4	0	0	0	0	647	
5	0	0	0	0	646	
6	0	0	0	0	644	
7	0	0	0	0	643	
8	0	0	0	0	641	
9	0	0	0	0	639	
10	0	0	0	0	637	
11	0	0	0	0	636	
12	0	0	0	0	634	
13	0	0	0	0	632	
14	0	0	0	0	631	
15	0	0	0	0	630	
0	0	0	0	0	629	
1	0	0	0	0	627	
2	0	0	0	0	627	
3	0	0	0	0	625	
4	0	0	0	0	623	
5	0	0	0	0	622	
6	0	0	0	0	621	
7	0	0	0	0	620	
8	0	0	0	0	618	
9	0	0	0	0	616	
10	0	0	0	0	614	
11	0	0	0	0	612	
12	0	0	0	0	611	
13	0	0	0	0	609	
14	0	0	0	0	607	
15	0	0	0	0	606	
0	0	0	0	0	605	
1	0	0	0	0	604	
2	0	0	0	0	602	
3	0	0	0	0	600	
4	0	0	0	0	599	
5	0	0	0	0	598	
6	0	0	0	0	597	
7	0	0	0	0	596	
8	0	0	0	0	595	
9	0	0	0	0	594	
10	0	0	0	0	593	
11	0	0	0	0	591	
12	0	0	0	0	590	
13	0	0	0	0	589	
14	0	0	0	0	587	
15	0	0	0	0	585	
0	0	0	0	0	584	
1	0	0	0	0	583	
2	0	0	0	0	581	
3	0	0	0	0	579	
4	0	0	0	0	577	
5	0	0	0	0	576	
6	0	0	0	0	574	
7	0	0	0	0	573	
8	0	0	0	0	572	
9	0	0	0	0	571	
10	0	0	0	0	570	
11	0	0	0	0	568	
12	0	0	0	0	567	
13	0	0	0	0	566	
14	0	0	0	0	565	
15	0	0	0	0	564	
0	0	0	0	0	563	
1	0	0	0	0	562	
2	0	0	0	0	560	
3	0	0	0	0	558	
4	0	0	0	0	556	
5	0	0	0	0	555	
6	0	0	0	0	553	
7	0	0	0	0	551	
8	0	0	0	0	550	
9	0	0	0	0	548	
10	0	0	0	0	548	
11	0	0	0	0	547	
12	0	0	0	0	547	
13	0	0	0	0	546	
14	0	0	0	0	545	
15	0	0	0	0	544	
0	0	0	0	0	543	
1	0	0	0	0	543	
2	0	0	0	0	543	
3	0	0	0	0	542	
4	0	0	0	0	541	
5	0	0	0	0	540	
6	0	0	0	0	539	
7	0	0	0	0	537	
8	0	0	0	0	536	
9	0	0	0	0	534	
10	0	0	0	0	532	
11	0	0	0	0	531	
12	0	0	0	0	529	
13	0	0	0	0	528	
14	0	0	0	0	526	
15	0	0	0	0	525	
0	0	0	0	0	525	
1	0	0	0	0	524	
2	0	0	0	0	524	
3	0	0	0	0	522	
4	0	0	0	0	521	
5	0	0	0	0	520	
6	0	0	0	0	519	
7	0	0	0	0	518	
8	0	0	0	0	516	
9	0	0	0	0	515	
10	0	0	0	0	513	
11	0	0	0	0	511	
12	0	0	0	0	510	
13	0	0	0	0	508	
14	0	0	0	0	506	
15	0	0	0	0	504	
0	0	0	0	0	503	
1	0	0	0	0	501	
2	0	0	0	0	500	
3	0	0	0	0	499	
4	0	0	0	0	497	
5	0	0	0	0	497	
6	0	0	0	0	496	
7	0	0	0	0	495	
8	0	0	0	0	494	
9	0	0	0	0	492	
10	0	0	0	0	491	
11	0	0	0	0	490	
12	0	0	0	0	489	
13	0	0	0	0	488	
14	0	0	0	0	487	
15	0	0	0	0	486	
0	0	0	0	0	485	
1	0	0	0	0	484	
2	0	0	0	0	483	
3	0	0	0	0	481	
4	0	0	0	0	480	
5	0	0	0	0	479	
6	0	0	0	0	478	
7	0	0	0	0	477	
8	0	0	0	0	476	
9	0	0	0	0	476	
10	0	0	0	0	475	
11	0	0	0	0	475	
12	0	0	0	0	475	
13	0	0	0	0	475	
14	0	0	0	0	473	
15	0	0	0	0	473	
0	0	0	0	0	472	
1	0	0	0	0	471	
2	0	0	0	0	471	
3	0	0	0	0	470	
4	0	0	0	0	469	
5	0	0	0	0	468	
6	0	0	0	0	467	
7	0	0	0	0	466	
8	0	0	0	0	466	
9	0	0	0	0	465	
10	0	0	0	0	465	
11	0	0	0	0	465	
12	0	0	0	0	464	
13	0	0	0	0	464	
14	0	0	0	0	465	
15	0	0	0	0	465	
0	0	0	0	0	467	
1	0	0	0	0	468	
2	0	0	0	0	470	
3	0	0	0	0	471	
4	0	0	0	0	472	
5	0	0	0	0	473	
6	0	0	0	0	475	
7	0	0	0	0	476	
8	0	0	0	0	478	
9	0	0	0	0	479	
10	0	0	0	0	481	
11	0	0	0	0	483	
12	0	0	0	0	484	
13	0	0	0	0	487	
14	0	0	0	0	490	
15	0	0	0	0	492	
0	0	0	0	0	495	
1	0	0	0	0	497	
2	0	0	0	0	500	
3	0	0	0	0	502	
4	0	0	0	0	505	
5	0	0	0	0	508	
6	0	0	0	0	509	
7	0	0	0	0	512	
8	0	0	0	0	514	
9	0	0	0	0	516	
10	0	0	0	0	518	
11	0	0	0	0	519	
12	0	0	0	0	521	
13	0	0	0	0	523	
14	0	0	0	0	524	
15	0	0	0	0	527	
0	0	0	0	0	528	
1	0	0	0	0	530	
2	0	0	0	0	532	
3	0	0	0	0	533	
4	0	0	0	0	535	
5	0	0	0	0	536	
6	0	0	0	0	538	
7	0	0	0	0	540	
8	0	0	0	0	542	
9	0	0	0	0	543	
10	0	0	0	0	545	
11	0	0	0	0	547	
12	0	0	0	0	547	
13	0	0	0	0	548	
14	0	0	0	0	548	
15	0	0	0	0	549	
0	0	0	0	0	549	
1	0	0	0	0	549	
2	0	0	0	0	549	
3	0	0	0	0	550	
4	0	0	0	0	550	
5	0	0	0	0	550	
6	0	0	0	0	551	
7	0	0	0	0	551	
8	0	0	0	0	551	
9	0	0	0	0	551	
10	0	0	0	0	551	
11	0	0	0	0	551	
12	0	0	0	0	552	
13	0	0	0	0	553	
14	0	0	0	0	554	
15	0	0	0	0	554	
0	0	0	0	0	553	
1	0	0	0	0	553	
2	0	0	0	0	552	
3	0	0	0	0	552	
4	0	0	0	0	552	
5	0	0	0	0	551	
6	0	0	0	0	551	
7	0	0	0	0	551	
8	0	0	0	0	550	
9	0	0	0	0	550	
10	0	0	0	0	549	
11	0	0	0	0	549	
12	0	0	0	0	549	
13	0	0	0	0	550	
14	0	0	0	0	549	
15	0	0	0	0	549	
0	0	0	0	0	549	
1	0	0	0	0	549	
2	0	0	0	0	549	
3	0	0	0	0	549	
4	0	0	0	0	548	
5	0	0	0	0	548	
6	0	0	0	0	548	
7	0	0	0	0	547	
8	0	0	0	0	546	
9	0	0	0	0	545	
10	0	0	0	0	544	
11	0	0	0	0	543	
12	0	0	0	0	542	
13	0	0	0	0	541	
14	0	0	0	0	540	
15	0	0	0	0	540	
0	0	0	0	0	540	
1	0	0	0	0	540	
2	0	0	0	0	540	
3	0	0	0	0	539	
4	0	0	0	0	539	
5	0	0	0	0	539	
6	0	0	0	0	539	
7	0	0	0	0	539	
8	0	0	0	0	538	
9	0	0	0	0	537	
10	0	0	0	0	536	
11	0	0	0	0	534	
12	0	0	0	0	533	
13	0	0	0	0	532	
14	0	0	0	0	531	
15	0	0	0	0	530	
0	0	0	0	0	529	
1	0	0	0	0	529	
2	0	0	0	0	528	
3	0	0	0	0	528	
4	0	0	0	0	529	
5	0	0	0	0	529	
6	0	0	0	0	529	
7	0	0	0	0	529	
8	0	0	0	0	529	
9	0	0	0	0	529	
10	0	0	0	0	528	
11	0	0	0	0	528	
12	0	0	0	0	527	
13	0	0	0	0	527	
14	0	0	0	0	526	
15	0	0	0	0	524	
0	0	0	0	0	523	
1	0	0	0	0	523	
2	0	0	0	0	522	
3	0	0	0	0	521	
4	0	0	0	0	521	
5	0	0	0	0	521	
6	0	0	0	0	520	
7	0	0	0	0	520	
8	0	0	0	0	519	
9	0	0	0	0	519	
10	0	0	0	0	519	
11	0	0	0	0	518	
12	0	0	0	0	518	
13	0	0	0	0	517	
14	0	0	0	0	517	
15	0	0	0	0	516	
0	0	0	0	0	515	
1	0	0	0	0	514	
2	0	0	0	0	513	
3	0	0	0	0	512	
4	0	0	0	0	512	
5	0	0	0	0	511	
6	0	0	0	0	510	
7	0	0	0	0	509	
8	0	0	0	0	508	
9	0	0	0	0	508	
10	0	0	0	0	507	
11	0	0	0	0	507	
12	0	0	0	0	507	
13	0	0	0	0	507	
14	0	0	0	0	507	
15	0	0	0	0	508	
0	0	0	0	0	508	
1	0	0	0	0	507	
2	0	0	0	0	507	
3	0	0	0	0	506	
4	0	0	0	0	505	
5	0	0	0	0	505	
6	0	0	0	0	504	
7	0	0	0	0	503	
8	0	0	0	0	502	
9	0	0	0	0	502	
10	0	0	0	0	502	
11	0	0	0	0	501	
12	0	0	0	0	501	
13	0	0	0	0	500	
14	0	0	0	0	501	
15	0	0	0	0	501	
0	0	0	0	0	501	
1	0	0	0	0	501	
2	0	0	0	0	502	
3	0	0	0	0	502	
4	0	0	0	0	502	
5	0	0	0	0	502	
6	0	0	0	0	503	
7	0	0	0	0	503	
8	0	0	0	0	503	
9	0	0	0	0	502	
10	0	0	0	0	501	
11	0	0	0	0	500	
12	0	0	0	0	500	
13	0	0	0	0	500	
14	0	0	0	0	500	
15	0	0	0	0	500	
0	0	0	0	0	499	
1	0	0	0	0	500	
2	0	0	0	0	500	
3	0	0	0	0	500	
4	0	0	0	0	501	
5	0	0	0	0	501	
6	0	0	0	0	501	
7	0	0	0	0	502	
8	0	0	0	0	502	
9	0	0	0	0	503	
10	0	0	0	0	503	
11	0	0	0	0	503	
12	0	0	0	0	504	
13	0	0	0	0	503	
14	0	0	0	0	502	
15	0	0	0	0	501	
0	0	0	0	0	501	
1	0	0	0	0	500	
2	0	0	0	0	499	
3	0	0	0	0	499	
4	0	0	0	0	499	
5	0	0	0	0	499	
6	0	0	0	0	499	
7	0	0	0	0	499	
8	0	0	0	0	500	
9	0	0	0	0	500	
10	0	0	0	0	501	
11	0	0	0	0	501	
12	0	0	0	0	502	
13	0	0	0	0	502	
14	0	0	0	0	502	
15	0	0	0	0	502	
0	0	0	0	0	502	
1	0	0	0	0	502	
2	0	0	0	0	502	
3	0	0	0	0	501	
4	0	0	0	0	501	
5	0	0	0	0	501	
6	0	0	0	0	502	
7	0	0	0	0	502	
8	0	0	0	0	502	
9	0	0	0	0	502	
10	0	0	0	0	502	
11	0	0	0	0	502	
12	0	0	0	0	503	
13	0	0	0	0	504	
14	0	0	0	0	504	
15	0	0	0	0	505	
0	0	0	0	0	505	
1	0	0	0	0	506	
2	0	0	0	0	507	
3	0	0	0	0	507	
4	0	0	0	0	506	
5	0	0	0	0	507	
6	0	0	0	0	506	
7	0	0	0	0	506	
8	0	0	0	0	507	
9	0	0	0	0	506	
10	0	0	0	0	506	
11	0	0	0	0	505	
12	0	0	0	0	505	
13	0	0	0	0	505	
14	0	0	0	0	505	
15	0	0	0	0	505	
0	0	0	0	0	506	
1	0	0	0	0	507	
2	0	0	0	0	508	
3	0	0	0	0	507	
4	0	0	0	0	507	
5	0	0	0	0	508	
6	0	0	0	0	508	
7	0	0	0	0	508	
8	0	0	0	0	508	
9	0	0	0	0	507	
10	0	0	0	0	507	
11	0	0	0	0	507	
12	0	0	0	0	507	
13	0	0	0	0	507	
14	0	0	0	0	507	
15	0	0	0	0	507	
0	0	0	0	0	506	
1	0	0	0	0	505	
2	0	0	0	0	505	
3	0	0	0	0	505	
4	0	0	0	0	505	
5	0	0	0	0	506	
6	0	0	0	0	507	
7	0	0	0	0	508	
8	0	0	0	0	508	
9	0	0	0	0	508	
10	0	0	0	0	508	
11	0	0	0	0	508	
12	0	0	0	0	507	
13	0	0	0	0	507	
14	0	0	0	0	506	
15	0	0	0	0	505	
0	0	0	0	0	505	
1	0	0	0	0	505	
2	0	0	0	0	504	
3	0	0	0	0	504	
4	0	0	0	0	504	
5	0	0	0	0	504	
6	0	0	0	0	504	
7	0	0	0	0	504	
8	0	0	0	0	504	
9	0	0	0	0	503	
10	0	0	0	0	504	
11	0	0	0	0	503	
12	0	0	0	0	504	
13	0	0	0	0	504	
14	0	0	0	0	504	
15	0	0	0	0	503	
0	0	0	0	0	503	
1	0	0	0	0	503	
2	0	0	0	0	503	
3	0	0	0	0	503	
4	0	0	0	0	504	
5	0	0	0	0	503	
6	0	0	0	0	503	
7	0	0	0	0	502	
8	0	0	0	0	501	
9	0	0	0	0	501	
10	0	0	0	0	500	
11	0	0	0	0	501	
12	0	0	0	0	502	
13	0	0	0	0	502	
14	0	0	0	0	503	
15	0	0	0	0	503	
0	0	0	0	0	503	
1	0	0	0	0	503	
2	0	0	0	0	504	
3	0	0	0	0	504	
4	0	0	0	0	505	
5	0	0	0	0	505	
6	0	0	0	0	505	
7	0	0	0	0	505	
8	0	0	0	0	504	
9	0	0	0	0	503	
10	0	0	0	0	503	
11	0	0	0	0	503	
12	0	0	0	0	502	
13	0	0	0	0	502	
14	0	0	0	0	502	
15	0	0	0	0	503	
0	0	0	0	0	503	
1	0	0	0	0	504	
2	0	0	0	0	504	
3	0	0	0	0	504	
4	0	0	0	0	505	
5	0	0	0	0	505	
6	0	0	0	0	505	
7	0	0	0	0	505	
8	0	0	0	0	505	
9	0	0	0	0	505	
10	0	0	0	0	505	
11	0	0	0	0	504	
12	0	0	0	0	504	
13	0	0	0	0	504	
14	0	0	0	0	504	
15	0	0	0	0	504	
0	0	0	0	0	504	
1	0	0	0	0	504	
2	0	0	0	0	504	
3	0	0	0	0	504	
4	0	0	0	0	504	
5	0	0	0	0	504	
6	0	0	0	0	504	
7	0	0	0	0	504	
8	0	0	0	0	505	
9	0	0	0	0	505	
10	0	0	0	0	506	
11	0	0	0	0	507	
12	0	0	0	0	506	
13	0	0	0	0	506	
14	0	0	0	0	505	
15	0	0	0	0	505	
0	0	0	0	0	504	
1	0	0	0	0	503	
2	0	0	0	0	503	
3	0	0	0	0	503	
4	0	0	0	0	502	
5	0	0	0	0	503	
6	0	0	0	0	502	
7	0	0	0	0	502	
8	0	0	0	0	503	
9	0	0	0	0	503	
10	0	0	0	0	504	
11	0	0	0	0	503	
12	0	0	0	0	503	
13	0	0	0	0	503	
14	0	0	0	0	504	
15	0	0	0	0	503	
0	0	0	0	0	503	
1	0	0	0	0	502	
2	0	0	0	0	502	
3	0	0	0	0	502	
4	0	0	0	0	501	
5	0	0	0	0	500	
6	0	0	0	0	500	
7	0	0	0	0	500	
8	0	0	0	0	499	
9	0	0	0	0	499	
10	0	0	0	0	499	
11	0	0	0	0	500	
12	0	0	0	0	500	
13	0	0	0	0	500	
14	0	0	0	0	500	
15	0	0	0	0	501	
0	0	0	0	0	502	
1	0	0	0	0	502	
2	0	0	0	0	502	
3	0	0	0	0	502	
4	0	0	0	0	502	
5	0	0	0	0	502	
6	0	0	0	0	501	
7	0	0	0	0	500	
8	0	0	0	0	500	
9	0	0	0	0	500	
10	0	0	0	0	500	
11	0	0	0	0	500	
12	0	0	0	0	499	
13	0	0	0	0	499	
14	0	0	0	0	499	
15	0	0	0	0	500	
0	0	0	0	0	500	
1	0	0	0	0	500	
2	0	0	0	0	500	
3	0	0	0	0	500	
4	0	0	0	0	501	
5	0	0	0	0	501	
6	0	0	0	0	501	
7	0	0	0	0	502	
8	0	0	0	0	502	
9	0	0	0	0	502	
10	0	0	0	0	502	
11	0	0	0	0	501	
12	0	0	0	0	501	
13	0	0	0	0	500	
14	0	0	0	0	499	
15	0	0	0	0	499	
0	0	0	0	0	498	
1	0	0	0	0	497	
2	0	0	0	0	496	
3	0	0	0	0	495	
4	0	0	0	0	494	
5	0	0	0	0	491	
6	0	0	0	0	489	
7	0	0	0	0	487	
8	0	0	0	0	484	
9	0	0	0	0	482	
10	0	0	0	0	480	
11	0	0	0	0	479	
12	0	0	0	0	478	
13	0	0	0	0	477	
14	0	0	0	0	476	
15	0	0	0	0	475	
0	0	0	0	0	474	
1	0	0	0	0	473	
2	0	0	0	0	472	
3	0	0	0	0	472	
4	0	0	0	0	472	
5	0	0	0	0	471	
6	0	0	0	0	470	
7	0	0	0	0	471	
8	0	0	0	0	472	
9	0	0	0	0	473	
10	0	0	0	0	474	
11	0	0	0	0	475	
12	0	0	0	0	476	
13	0	0	0	0	475	
14	0	0	0	0	473	
15	0	0	0	0	473	
0	0	0	0	0	472	
1	0	0	0	0	472	
2	0	0	0	0	472	
3	0	0	0	0	470	
4	0	0	0	0	469	
5	0	0	0	0	467	
6	0	0	0	0	464	
7	0	0	0	0	462	
8	0	0	0	0	460	
9	0	0	0	0	459	
10	0	0	0	0	459	
11	0	0	0	0	460	
12	0	0	0	0	462	
13	0	0	0	0	463	
14	0	0	0	0	464	
15	0	0	0	0	465	
0	0	0	0	0	466	
1	0	0	0	0	467	
2	0	0	0	0	468	
3	0	0	0	0	470	
4	0	0	0	0	471	
5	0	0	0	0	472	
6	0	0	0	0	473	
7	0	0	0	0	475	
8	0	0	0	0	476	
9	0	0	0	0	477	
10	0	0	0	0	478	
11	0	0	0	0	479	
12	0	0	0	0	481	
13	0	0	0	0	482	
14	0	0	0	0	483	
15	0	0	0	0	484	
0	0	0	0	0	485	
1	0	0	0	0	487	
2	0	0	0	0	489	
3	0	0	0	0	491	
4	0	0	0	0	493	
5	0	0	0	0	496	
6	0	0	0	0	498	
7	0	0	0	0	501	
8	0	0	0	0	503	
9	0	0	0	0	504	
10	0	0	0	0	505	
11	0	0	0	0	507	
12	0	0	0	0	508	
13	0	0	0	0	508	
14	0	0	0	0	508	
15	0	0	0	0	508	
0	0	0	0	0	509	
1	0	0	0	0	511	
2	0	0	0	0	513	
3	0	0	0	0	515	
4	0	0	0	0	517	
5	0	0	0	0	519	
6	0	0	0	0	521	
7	0	0	0	0	522	
8	0	0	0	0	522	
9	0	0	0	0	523	
10	0	0	0	0	523	
11	0	0	0	0	523	
12	0	0	0	0	522	
13	0	0	0	0	522	
14	0	0	0	0	521	
15	0	0	0	0	520	
0	0	0	0	0	520	
1	0	0	0	0	520	
2	0	0	0	0	520	
3	0	0	0	0	520	
4	0	0	0	0	519	
5	0	0	0	0	519	
6	0	0	0	0	519	
7	0	0	0	0	520	
8	0	0	0	0	520	
9	0	0	0	0	521	
10	0	0	0	0	521	
11	0	0	0	0	521	
12	0	0	0	0	521	
13	0	0	0	0	521	
14	0	0	0	0	522	
15	0	0	0	0	522	
0	0	0	0	0	521	
1	0	0	0	0	520	
2	0	0	0	0	520	
3	0	0	0	0	519	
4	0	0	0	0	519	
5	0	0	0	0	518	
6	0	0	0	0	517	
7	0	0	0	0	516	
8	0	0	0	0	517	
9	0	0	0	0	516	
10	0	0	0	0	515	
11	0	0	0	0	516	
12	0	0	0	0	516	
13	0	0	0	0	516	
14	0	0	0	0	518	
15	0	0	0	0	519	
0	0	0	0	0	520	
1	0	0	0	0	523	
2	0	0	0	0	526	
3	0	0	0	0	528	
4	0	0	0	0	531	
5	0	0	0	0	534	
6	0	0	0	0	537	
7	0	0	0	0	540	
8	0	0	0	0	544	
9	0	0	0	0	549	
10	0	0	0	0	553	
11	0	0	0	0	557	
12	0	0	0	0	558	
13	0	0	0	0	559	
14	0	0	0	0	558	
15	0	0	0	0	553	
0	0	0	0	0	543	
1	0	0	0	0	532	
2	0	0	0	0	517	
3	0	0	0	0	501	
4	0	0	0	0	481	
5	0	0	0	0	459	
6	0	0	0	0	438	
7	0	0	0	0	415	
8	0	0	0	0	390	
9	0	0	0	0	366	
10	0	0	0	0	338	
11	0	0	0	0	309	
12	0	0	0	0	278	
13	0	0	0	0	245	
14	0	0	0	0	211	
15	0	0	0	0	177	
0	0	0	0	0	143	
1	0	0	0	0	107	
2	0	0	0	0	70	
3	0	0	0	0	31	
4	0	0	0	0	0	
5	0	0	0	0	0	
6	0	0	0	0	0	
7	0	0	0	0	0	
8	0	0	0	0	0	
9	0	0	0	0	0	
10	0	0	0	0	0	
11	0	0	0	0	0	
12	0	0	0	0	0	
13	0	0	0	0	0	
14	0	0	0	0	0	
15	0	0	0	0	0	
0	0	0	0	0	0	
1	0	0	0	0	0	
2	0	0	0	0	45	
3	0	0	0	0	99	
4	0	0	0	0	148	
5	0	0	0	0	195	
6	0	0	0	0	243	
7	0	0	0	0	289	
8	0	0	0	0	335	
9	0	0	0	0	378	
10	0	0	0	0	419	
11	0	0	0	0	457	
12	0	0	0	0	494	
13	0	0	0	0	526	
14	0	0	0	0	555	
15	0	0	0	0	578	
0	0	0	0	0	596	
1	0	0	0	0	610	
2	0	0	0	0	624	
3	0	0	0	0	635	
4	0	0	0	0	645	
5	0	0	0	0	654	
6	0	0	0	0	661	
7	0	0	0	0	668	
8	0	0	0	0	674	
9	0	0	0	0	679	
10	0	0	0	0	683	
11	0	0	0	0	686	
12	0	0	0	0	689	
13	0	0	0	0	689	
14	0	0	0	0	688	
15	0	0	0	0	686	
0	0	0	0	0	684	
1	0	0	0	0	683	
2	0	0	0	0	681	
3	0	0	0	0	678	
4	0	0	0	0	676	
5	0	0	0	0	673	
6	0	0	0	0	670	
7	0	0	0	0	667	
8	0	0	0	0	665	
9	0	0	0	0	663	
10	0	0	0	0	661	
11	0	0	0	0	658	
12	0	0	0	0	656	
13	0	0	0	0	655	
14	0	0	0	0	653	
15	0	0	0	0	652	
0	0	0	0	0	652	
1	0	0	0	0	650	
2	0	0	0	0	649	
3	0	0	0	0	648	
4	0	0	0	0	648	
5	0	0	0	0	646	
6	0	0	0	0	644	
7	0	0	0	0	643	
8	0	0	0	0	641	
9	0	0	0	0	639	
10	0	0	0	0	637	
11	0	0	0	0	635	
12	0	0	0	0	633	
13	0	0	0	0	632	
14	0	0	0	0	631	
15	0	0	0	0	629	
0	0	0	0	0	627	
1	0	0	0	0	626	
2	0	0	0	0	625	
3	0	0	0	0	624	
4	0	0	0	0	623	
5	0	0	0	0	622	
6	0	0	0	0	622	
7	0	0	0	0	621	
8	0	0	0	0	620	
9	0	0	0	0	619	
10	0	0	0	0	618	
11	0	0	0	0	617	
12	0	0	0	0	616	
13	0	0	0	0	614	
14	0	0	0	0	613	
15	0	0	0	0	611	
0	0	0	0	0	610	
1	0	0	0	0	608	
2	0	0	0	0	607	
3	0	0	0	0	606	
4	0	0	0	0	604	
5	0	0	0	0	603	
6	0	0	0	0	602	
7	0	0	0	0	600	
8	0	0	0	0	600	
9	0	0	0	0	598	
10	0	0	0	0	597	
11	0	0	0	0	595	
12	0	0	0	0	593	
13	0	0	0	0	591	
14	0	0	0	0	590	
15	0	0	0	0	589	
0	0	0	0	0	587	
1	0	0	0	0	585	
2	0	0	0	0	583	
3	0	0	0	0	582	
4	0	0	0	0	581	
5	0	0	0	0	580	
6	0	0	0	0	578	
7	0	0	0	0	576	
8	0	0	0	0	575	
9	0	0	0	0	574	
10	0	0	0	0	572	
11	0	0	0	0	571	
12	0	0	0	0	569	
13	0	0	0	0	568	
14	0	0	0	0	568	
15	0	0	0	0	567	
0	0	0	0	0	566	
1	0	0	0	0	564	
2	0	0	0	0	563	
3	0	0	0	0	563	
4	0	0	0	0	562	
5	0	0	0	0	560	
6	0	0	0	0	559	
7	0	0	0	0	558	
8	0	0	0	0	557	
9	0	0	0	0	556	
10	0	0	0	0	555	
11	0	0	0	0	553	
12	0	0	0	0	552	
13	0	0	0	0	553	
14	0	0	0	0	551	
15	0	0	0	0	551	
0	0	0	0	0	550	
1	0	0	0	0	549	
2	0	0	0	0	547	
3	0	0	0	0	547	
4	0	0	0	0	547	
5	0	0	0	0	546	
6	0	0	0	0	545	
7	0	0	0	0	545	
8	0	0	0	0	544	
9	0	0	0	0	544	
10	0	0	0	0	543	
11	0	0	0	0	541	
12	0	0	0	0	540	
13	0	0	0	0	537	
14	0	0	0	0	536	
15	0	0	0	0	534	
0	0	0	0	0	533	
1	0	0	0	0	532	
2	0	0	0	0	531	
3	0	0	0	0	530	
4	0	0	0	0	528	
5	0	0	0	0	527	
6	0	0	0	0	527	
7	0	0	0	0	525	
8	0	0	0	0	524	
9	0	0	0	0	521	
10	0	0	0	0	520	
11	0	0	0	0	518	
12	0	0	0	0	517	
13	0	0	0	0	515	
14	0	0	0	0	513	
15	0	0	0	0	511	
0	0	0	0	0	511	
1	0	0	0	0	508	
2	0	0	0	0	507	
3	0	0	0	0	505	
4	0	0	0	0	504	
5	0	0	0	0	503	
6	0	0	0	0	501	
7	0	0	0	0	499	
8	0	0	0	0	498	
9	0	0	0	0	496	
10	0	0	0	0	495	
11	0	0	0	0	493	
12	0	0	0	0	492	
13	0	0	0	0	491	
14	0	0	0	0	489	
15	0	0	0	0	488	
0	0	0	0	0	487	
1	0	0	0	0	485	
2	0	0	0	0	483	
3	0	0	0	0	481	
4	0	0	0	0	481	
5	0	0	0	0	480	
6	0	0	0	0	479	
7	0	0	0	0	478	
8	0	0	0	0	476	
9	0	0	0	0	476	
10	0	0	0	0	474	
11	0	0	0	0	473	
12	0	0	0	0	472	
13	0	0	0	0	471	
14	0	0	0	0	470	
15	0	0	0	0	469	
0	0	0	0	0	468	
1	0	0	0	0	469	
2	0	0	0	0	470	
3	0	0	0	0	469	
4	0	0	0	0	469	
5	0	0	0	0	468	
6	0	0	0	0	468	
7	0	0	0	0	467	
8	0	0	0	0	467	
9	0	0	0	0	465	
10	0	0	0	0	465	
11	0	0	0	0	464	
12	0	0	0	0	464	
13	0	0	0	0	464	
14	0	0	0	0	465	
15	0	0	0	0	466	
0	0	0	0	0	467	
1	0	0	0	0	467	
2	0	0	0	0	468	
3	0	0	0	0	469	
4	0	0	0	0	470	
5	0	0	0	0	470	
6	0	0	0	0	472	
7	0	0	0	0	472	
8	0	0	0	0	473	
9	0	0	0	0	476	
10	0	0	0	0	478	
11	0	0	0	0	479	
12	0	0	0	0	482	
13	0	0	0	0	484	
14	0	0	0	0	486	
15	0	0	0	0	488	
0	0	0	0	0	491	
1	0	0	0	0	494	
2	0	0	0	0	496	
3	0	0	0	0	499	
4	0	0	0	0	502	
5	0	0	0	0	504	
6	0	0	0	0	507	
7	0	0	0	0	509	
8	0	0	0	0	512	
9	0	0	0	0	514	
10	0	0	0	0	517	
11	0	0	0	0	519	
12	0	0	0	0	521	
13	0	0	0	0	524	
14	0	0	0	0	524	
15	0	0	0	0	526	
0	0	0	0	0	528	
1	0	0	0	0	530	
2	0	0	0	0	532	
3	0	0	0	0	535	
4	0	0	0	0	537	
5	0	0	0	0	539	
6	0	0	0	0	542	
7	0	0	0	0	543	
8	0	0	0	0	544	
9	0	0	0	0	546	
10	0	0	0	0	547	
11	0	0	0	0	547	
12	0	0	0	0	549	
13	0	0	0	0	551	
14	0	0	0	0	551	
15	0	0	0	0	551	
0	0	0	0	0	553	
1	0	0	0	0	553	
2	0	0	0	0	554	
3	0	0	0	0	555	
4	0	0	0	0	556	
5	0	0	0	0	556	
6	0	0	0	0	556	
7	0	0	0	0	557	
8	0	0	0	0	558	
9	0	0	0	0	557	
10	0	0	0	0	558	
11	0	0	0	0	559	
12	0	0	0	0	559	
13	0	0	0	0	558	
14	0	0	0	0	558	
15	0	0	0	0	558	
0	0	0	0	0	558	
1	0	0	0	0	558	
2	0	0	0	0	558	
3	0	0	0	0	558	
4	0	0	0	0	558	
5	0	0	0	0	558	
6	0	0	0	0	556	
7	0	0	0	0	556	
8	0	0	0	0	555	
9	0	0	0	0	555	
10	0	0	0	0	554	
11	0	0	0	0	554	
12	0	0	0	0	553	
13	0	0	0	0	554	
14	0	0	0	0	553	
15	0	0	0	0	554	
0	0	0	0	0	553	
1	0	0	0	0	553	
2	0	0	0	0	553	
3	0	0	0	0	552	
4	0	0	0	0	551	
5	0	0	0	0	551	
6	0	0	0	0	551	
7	0	0	0	0	551	
8	0	0	0	0	551	
9	0	0	0	0	551	
10	0	0	0	0	551	
11	0	0	0	0	550	
12	0	0	0	0	550	
13	0	0	0	0	548	
14	0	0	0	0	548	
15	0	0	0	0	547	
0	0	0	0	0	546	
1	0	0	0	0	546	
2	0	0	0	0	546	
3	0	0	0	0	545	
4	0	0	0	0	544	
5	0	0	0	0	543	
6	0	0	0	0	543	
7	0	0	0	0	543	
8	0	0	0	0	543	
9	0	0	0	0	543	
10	0	0	0	0	542	
11	0	0	0	0	542	
12	0	0	0	0	541	
13	0	0	0	0	541	
14	0	0	0	0	540	
15	0	0	0	0	539	
0	0	0	0	0	539	
1	0	0	0	0	537	
2	0	0	0	0	537	
3	0	0	0	0	536	
4	0	0	0	0	535	
5	0	0	0	0	534	
6	0	0	0	0	534	
7	0	0	0	0	533	
8	0	0	0	0	533	
9	0	0	0	0	533	
10	0	0	0	0	533	
11	0	0	0	0	532	
12	0	0	0	0	532	
13	0	0	0	0	531	
14	0	0	0	0	531	
15	0	0	0	0	531	
0	0	0	0	0	531	
1	0	0	0	0	530	
2	0	0	0	0	530	
3	0	0	0	0	529	
4	0	0	0	0	529	
5	0	0	0	0	528	
6	0	0	0	0	528	
7	0	0	0	0	527	
8	0	0	0	0	525	
9	0	0	0	0	525	
10	0	0	0	0	524	
11	0	0	0	0	524	
12	0	0	0	0	523	
13	0	0	0	0	523	
14	0	0	0	0	522	
15	0	0	0	0	521	
0	0	0	0	0	521	
1	0	0	0	0	520	
2	0	0	0	0	520	
3	0	0	0	0	519	
4	0	0	0	0	518	
5	0	0	0	0	517	
6	0	0	0	0	516	
7	0	0	0	0	515	
8	0	0	0	0	514	
9	0	0	0	0	513	
10	0	0	0	0	512	
11	0	0	0	0	512	
12	0	0	0	0	511	
13	0	0	0	0	511	
14	0	0	0	0	511	
15	0	0	0	0	510	
0	0	0	0	0	510	
1	0	0	0	0	511	
2	0	0	0	0	510	
3	0	0	0	0	510	
4	0	0	0	0	510	
5	0	0	0	0	510	
6	0	0	0	0	510	
7	0	0	0	0	510	
8	0	0	0	0	509	
9	0	0	0	0	509	
10	0	0	0	0	508	
11	0	0	0	0	507	
12	0	0	0	0	506	
13	0	0	0	0	505	
14	0	0	0	0	505	
15	0	0	0	0	504	
0	0	0	0	0	503	
1	0	0	0	0	503	
2	0	0	0	0	502	
3	0	0	0	0	502	
4	0	0	0	0	501	
5	0	0	0	0	502	
6	0	0	0	0	503	
7	0	0	0	0	504	
8	0	0	0	0	504	
9	0	0	0	0	505	
10	0	0	0	0	505	
11	0	0	0	0	506	
12	0	0	0	0	506	
13	0	0	0	0	505	
14	0	0	0	0	505	
15	0	0	0	0	504	
0	0	0	0	0	504	
1	0	0	0	0	504	
2	0	0	0	0	504	
3	0	0	0	0	504	
4	0	0	0	0	504	
5	0	0	0	0	504	
6	0	0	0	0	503	
7	0	0	0	0	502	
8	0	0	0	0	502	
9	0	0	0	0	503	
10	0	0	0	0	503	
11	0	0	0	0	503	
12	0	0	0	0	503	
13	0	0	0	0	504	
14	0	0	0	0	504	
15	0	0	0	0	504	
0	0	0	0	0	504	
1	0	0	0	0	503	
2	0	0	0	0	502	
3	0	0	0	0	503	
4	0	0	0	0	503	
5	0	0	0	0	503	
6	0	0	0	0	502	
7	0	0	0	0	502	
8	0	0	0	0	501	
9	0	0	0	0	501	
10	0	0	0	0	501	
11	0	0	0	0	500	
12	0	0	0	0	499	
13	0	0	0	0	500	
14	0	0	0	0	500	
15	0	0	0	0	500	
0	0	0	0	0	500	
1	0	0	0	0	500	
2	0	0	0	0	501	
3	0	0	0	0	501	
4	0	0	0	0	501	
5	0	0	0	0	501	
6	0	0	0	0	501	
7	0	0	0	0	501	
8	0	0	0	0	500	
9	0	0	0	0	499	
10	0	0	0	0	500	
11	0	0	0	0	500	
12	0	0	0	0	499	
13	0	0	0	0	499	
14	0	0	0	0	500	
15	0	0	0	0	501	
0	0	0	0	0	501	
1	0	0	0	0	502	
2	0	0	0	0	502	
3	0	0	0	0	503	
4	0	0	0	0	504	
5	0	0	0	0	504	
6	0	0	0	0	504	
7	0	0	0	0	504	
8	0	0	0	0	503	
9	0	0	0	0	503	
10	0	0	0	0	503	
11	0	0	0	0	503	
12	0	0	0	0	503	
13	0	0	0	0	501	
14	0	0	0	0	500	
15	0	0	0	0	501	
0	0	0	0	0	502	
1	0	0	0	0	503	
2	0	0	0	0	503	
3	0	0	0	0	504	
4	0	0	0	0	504	
5	0	0	0	0	504	
6	0	0	0	0	503	
7	0	0	0	0	504	
8	0	0	0	0	505	
9	0	0	0	0	505	
10	0	0	0	0	505	
11	0	0	0	0	505	
12	0	0	0	0	504	
13	0	0	0	0	505	
14	0	0	0	0	505	
15	0	0	0	0	505	
0	0	0	0	0	505	
1	0	0	0	0	504	
2	0	0	0	0	504	
3	0	0	0	0	503	
4	0	0	0	0	503	
5	0	0	0	0	503	
6	0	0	0	0	503	
7	0	0	0	0	503	
8	0	0	0	0	503	
9	0	0	0	0	503	
10	0	0	0	0	504	
11	0	0	0	0	504	
12	0	0	0	0	505	
13	0	0	0	0	505	
14	0	0	0	0	505	
15	0	0	0	0	504	
0	0	0	0	0	504	
1	0	0	0	0	503	
2	0	0	0	0	503	
3	0	0	0	0	503	
4	0	0	0	0	503	
5	0	0	0	0	503	
6	0	0	0	0	502	
7	0	0	0	0	502	
8	0	0	0	0	501	
9	0	0	0	0	502	
10	0	0	0	0	502	
11	0	0	0	0	503	
12	0	0	0	0	503	
13	0	0	0	0	503	
14	0	0	0	0	504	
15	0	0	0	0	504	
0	0	0	0	0	505	
1	0	0	0	0	505	
2	0	0	0	0	506	
3	0	0	0	0	507	
4	0	0	0	0	507	
5	0	0	0	0	507	
6	0	0	0	0	507	
7	0	0	0	0	507	
8	0	0	0	0	506	
9	0	0	0	0	505	
10	0	0	0	0	504	
11	0	0	0	0	503	
12	0	0	0	0	503	
13	0	0	0	0	503	
14	0	0	0	0	503	
15	0	0	0	0	504	
0	0	0	0	0	504	
1	0	0	0	0	505	
2	0	0	0	0	506	
3	0	0	0	0	507	
4	0	0	0	0	507	
5	0	0	0	0	508	
6	0	0	0	0	508	
7	0	0	0	0	509	
8	0	0	0	0	508	
9	0	0	0	0	508	
10	0	0	0	0	507	
11	0	0	0	0	507	
12	0	0	0	0	506	
13	0	0	0	0	505	
14	0	0	0	0	505	
15	0	0	0	0	505	
0	0	0	0	0	504	
1	0	0	0	0	504	
2	0	0	0	0	504	
3	0	0	0	0	504	
4	0	0	0	0	504	
5	0	0	0	0	504	
6	0	0	0	0	504	
7	0	0	0	0	503	
8	0	0	0	0	504	
9	0	0	0	0	505	
10	0	0	0	0	505	
11	0	0	0	0	505	
12	0	0	0	0	504	
13	0	0	0	0	504	
14	0	0	0	0	504	
15	0	0	0	0	503	
0	0	0	0	0	503	
1	0	0	0	0	503	
2	0	0	0	0	503	
3	0	0	0	0	503	
4	0	0	0	0	502	
5	0	0	0	0	501	
6	0	0	0	0	501	
7	0	0	0	0	502	
8	0	0	0	0	502	
9	0	0	0	0	502	
10	0	0	0	0	503	
11	0	0	0	0	504	
12	0	0	0	0	505	
13	0	0	0	0	505	
14	0	0	0	0	505	
15	0	0	0	0	505	
0	0	0	0	0	505	
1	0	0	0	0	505	
2	0	0	0	0	505	
3	0	0	0	0	505	
4	0	0	0	0	504	
5	0	0	0	0	504	
6	0	0	0	0	504	
7	0	0	0	0	503	
8	0	0	0	0	502	
9	0	0	0	0	502	
10	0	0	0	0	502	
11	0	0	0	0	503	
12	0	0	0	0	504	
13	0	0	0	0	504	
14	0	0	0	0	505	
15	0	0	0	0	505	
0	0	0	0	0	505	
1	0	0	0	0	505	
2	0	0	0	0	505	
3	0	0	0	0	504	
4	0	0	0	0	504	
5	0	0	0	0	504	
6	0	0	0	0	504	
7	0	0	0	0	505	
8	0	0	0	0	505	
9	0	0	0	0	504	
10	0	0	0	0	504	
11	0	0	0	0	503	
12	0	0	0	0	503	
13	0	0	0	0	504	
14	0	0	0	0	504	
15	0	0	0	0	504	
0	0	0	0	0	504	
1	0	0	0	0	504	
2	0	0	0	0	504	
3	0	0	0	0	503	
4	0	0	0	0	503	
5	0	0	0	0	502	
6	0	0	0	0	501	
7	0	0	0	0	500	
8	0	0	0	0	498	
9	0	0	0	0	495	
10	0	0	0	0	492	
11	0	0	0	0	489	
12	0	0	0	0	488	
13	0	0	0	0	485	
14	0	0	0	0	482	
15	0	0	0	0	480	
0	0	0	0	0	479	
1	0	0	0	0	477	
2	0	0	0	0	476	
3	0	0	0	0	476	
4	0	0	0	0	476	
5	0	0	0	0	476	
6	0	0	0	0	476	
7	0	0	0	0	477	
8	0	0	0	0	477	
9	0	0	0	0	477	
10	0	0	0	0	478	
11	0	0	0	0	478	
12	0	0	0	0	478	
13	0	0	0	0	478	
14	0	0	0	0	478	
15	0	0	0	0	477	
0	0	0	0	0	478	
1	0	0	0	0	478	
2	0	0	0	0	478	
3	0	0	0	0	476	
4	0	0	0	0	474	
5	0	0	0	0	473	
6	0	0	0	0	472	
7	0	0	0	0	472	
8	0	0	0	0	472	
9	0	0	0	0	471	
10	0	0	0	0	470	
11	0	0	0	0	469	
12	0	0	0	0	467	
13	0	0	0	0	465	
14	0	0	0	0	463	
15	0	0	0	0	463	
0	0	0	0	0	463	
1	0	0	0	0	464	
2	0	0	0	0	466	
3	0	0	0	0	467	
4	0	0	0	0	470	
5	0	0	0	0	471	
6	0	0	0	0	471	
7	0	0	0	0	472	
8	0	0	0	0	473	
9	0	0	0	0	474	
10	0	0	0	0	476	
11	0	0	0	0	477	
12	0	0	0	0	477	
13	0	0	0	0	478	
14	0	0	0	0	480	
15	0	0	0	0	482	
0	0	0	0	0	483	
1	0	0	0	0	484	
2	0	0	0	0	485	
3	0	0	0	0	486	
4	0	0	0	0	486	
5	0	0	0	0	486	
6	0	0	0	0	487	
7	0	0	0	0	488	
8	0	0	0	0	491	
9	0	0	0	0	492	
10	0	0	0	0	495	
11	0	0	0	0	498	
12	0	0	0	0	500	
13	0	0	0	0	503	
14	0	0	0	0	505	
15	0	0	0	0	508	
0	0	0	0	0	511	
1	0	0	0	0	512	
2	0	0	0	0	513	
3	0	0	0	0	514	
4	0	0	0	0	515	
5	0	0	0	0	516	
6	0	0	0	0	517	
7	0	0	0	0	519	
8	0	0	0	0	519	
9	0	0	0	0	520	
10	0	0	0	0	521	
11	0	0	0	0	521	
12	0	0	0	0	523	
13	0	0	0	0	523	
14	0	0	0	0	523	
15	0	0	0	0	523	
0	0	0	0	0	522	
1	0	0	0	0	522	
2	0	0	0	0	522	
3	0	0	0	0	523	
4	0	0	0	0	523	
5	0	0	0	0	522	
6	0	0	0	0	523	
7	0	0	0	0	522	
8	0	0	0	0	522	
9	0	0	0	0	523	
10	0	0	0	0	523	
11	0	0	0	0	523	
12	0	0	0	0	523	
13	0	0	0	0	522	
14	0	0	0	0	521	
15	0	0	0	0	522	
0	0	0	0	0	522	
1	0	0	0	0	521	
2	0	0	0	0	521	
3	0	0	0	0	521	
4	0	0	0	0	521	
5	0	0	0	0	521	
6	0	0	0	0	521	
7	0	0	0	0	521	
8	0	0	0	0	522	
9	0	0	0	0	522	
10	0	0	0	0	523	
11	0	0	0	0	523	
12	0	0	0	0	523	
13	0	0	0	0	523	
14	0	0	0	0	522	
15	0	0	0	0	521	
0	0	0	0	0	521	
1	0	0	0	0	521	
2	0	0	0	0	521	
3	0	0	0	0	521	
4	0	0	0	0	522	
5	0	0	0	0	523	
6	0	0	0	0	525	
7	0	0	0	0	527	
8	0	0	0	0	530	
9	0	0	0	0	532	
10	0	0	0	0	535	
11	0	0	0	0	538	
12	0	0	0	0	541	
13	0	0	0	0	544	
14	0	0	0	0	549	
15	0	0	0	0	554	
0	0	0	0	0	558	
1	0	0	0	0	560	
2	0	0	0	0	562	
3	0	0	0	0	561	
4	0	0	0	0	557	
5	0	0	0	0	547	
6	0	0	0	0	535	
7	0	0	0	0	521	
8	0	0	0	0	505	
9	0	0	0	0	487	
10	0	0	0	0	466	
11	0	0	0	0	444	
12	0	0	0	0	420	
13	0	0	0	0	395	
14	0	0	0	0	369	
15	0	0	0	0	344	
0	0	0	0	0	317	
1	0	0	0	0	287	
2	0	0	0	0	259	
3	0	0	0	0	227	
4	0	0	0	0	195	
5	0	0	0	0	163	
6	0	0	0	0	129	
7	0	0	0	0	95	
8	0	0	0	0	57	
9	0	0	0	0	17	
10	0	0	0	0	0	
11	0	0	0	0	0	
12	0	0	0	0	0	
13	0	0	0	0	0	
14	0	0	0	0	0	
15	0	0	0	0	0	
0	0	0	0	0	0	
1	0	0	0	0	0	
2	0	0	0	0	0	
3	0	0	0	0	0	
4	0	0	0	0	0	
5	0	0	0	0	0	
6	0	0	0	0	0	
7	0	0	0	0	28	
8	0	0	0	0	83	
9	0	0	0	0	138	
10	0	0	0	0	188	
11	0	0	0	0	234	
12	0	0	0	0	280	
13	0	0	0	0	324	
14	0	0	0	0	368	
15	0	0	0	0	408	
0	0	0	0	0	443	
1	0	0	0	0	478	
2	0	0	0	0	507	
3	0	0	0	0	535	
4	0	0	0	0	558	
5	0	0	0	0	578	
6	0	0	0	0	595	
7	0	0	0	0	610	
8	0	0	0	0	623	
9	0	0	0	0	636	
10	0	0	0	0	647	
11	0	0	0	0	658	
12	0	0	0	0	667	
13	0	0	0	0	675	
14	0	0	0	0	682	
15	0	0	0	0	687	
0	0	0	0	0	692	
1	0	0	0	0	694	
2	0	0	0	0	695	
3	0	0	0	0	694	
4	0	0	0	0	692	
5	0	0	0	0	689	
6	0	0	0	0	686	
7	0	0	0	0	682	
8	0	0	0	0	679	
9	0	0	0	0	677	
10	0	0	0	0	675	
11	0	0	0	0	673	
12	0	0	0	0	670	
13	0	0	0	0	667	
14	0	0	0	0	663	
15	0	0	0	0	660	
0	0	0	0	0	657	
1	0	0	0	0	654	
2	0	0	0	0	651	
3	0	0	0	0	649	
4	0	0	0	0	647	
5	0	0	0	0	645	
6	0	0	0	0	643	
7	0	0	0	0	640	
8	0	0	0	0	639	
9	0	0	0	0	637	
10	0	0	0	0	635	
11	0	0	0	0	633	
12	0	0	0	0	632	
13	0	0	0	0	630	
14	0	0	0	0	629	
15	0	0	0	0	628	
0	0	0	0	0	627	
1	0	0	0	0	625	
2	0	0	0	0	625	
3	0	0	0	0	624	
4	0	0	0	0	624	
5	0	0	0	0	623	
6	0	0	0	0	622	
7	0	0	0	0	620	
8	0	0	0	0	618	
9	0	0	0	0	617	
10	0	0	0	0	616	
11	0	0	0	0	614	
12	0	0	0	0	613	
13	0	0	0	0	610	
14	0	0	0	0	608	
15	0	0	0	0	607	
0	0	0	0	0	606	
1	0	0	0	0	604	
2	0	0	0	0	603	
3	0	0	0	0	601	
4	0	0	0	0	600	
5	0	0	0	0	599	
6	0	0	0	0	598	
7	0	0	0	0	596	
8	0	0	0	0	595	
9	0	0	0	0	594	
10	0	0	0	0	592	
11	0	0	0	0	592	
12	0	0	0	0	591	
13	0	0	0	0	590	
14	0	0	0	0	588	
15	0	0	0	0	586	
0	0	0	0	0	584	
1	0	0	0	0	582	
2	0	0	0	0	580	
3	0	0	0	0	579	
4	0	0	0	0	577	
5	0	0	0	0	577	
6	0	0	0	0	576	
7	0	0	0	0	575	
8	0	0	0	0	574	
9	0	0	0	0	572	
10	0	0	0	0	571	
11	0	0	0	0	570	
12	0	0	0	0	569	
13	0	0	0	0	568	
14	0	0	0	0	566	
15	0	0	0	0	565	
0	0	0	0	0	563	
1	0	0	0	0	561	
2	0	0	0	0	560	
3	0	0	0	0	559	
4	0	0	0	0	558	
5	0	0	0	0	556	
6	0	0	0	0	553	
7	0	0	0	0	552	
8	0	0	0	0	550	
9	0	0	0	0	549	
10	0	0	0	0	548	
11	0	0	0	0	548	
12	0	0	0	0	548	
13	0	0	0	0	547	
14	0	0	0	0	547	
15	0	0	0	0	546	
0	0	0	0	0	544	
1	0	0	0	0	543	
2	0	0	0	0	542	
3	0	0	0	0	541	
4	0	0	0	0	540	
5	0	0	0	0	538	
6	0	0	0	0	537	
7	0	0	0	0	536	
8	0	0	0	0	536	
9	0	0	0	0	535	
10	0	0	0	0	534	
11	0	0	0	0	534	
12	0	0	0	0	533	
13	0	0	0	0	534	
14	0	0	0	0	532	
15	0	0	0	0	531	
0	0	0	0	0	530	
1	0	0	0	0	528	
2	0	0	0	0	527	
3	0	0	0	0	525	
4	0	0	0	0	524	
5	0	0	0	0	524	
6	0	0	0	0	522	
7	0	0	0	0	521	
8	0	0	0	0	520	
9	0	0	0	0	519	
10	0	0	0	0	518	
11	0	0	0	0	517	
12	0	0	0	0	516	
13	0	0	0	0	514	
14	0	0	0	0	512	
15	0	0	0	0	511	
0	0	0	0	0	508	
1	0	0	0	0	507	
2	0	0	0	0	504	
3	0	0	0	0	504	
4	0	0	0	0	502	
5	0	0	0	0	501	
6	0	0	0	0	500	
7	0	0	0	0	499	
8	0	0	0	0	498	
9	0	0	0	0	497	
10	0	0	0	0	495	
11	0	0	0	0	493	
12	0	0	0	0	492	
13	0	0	0	0	490	
14	0	0	0	0	488	
15	0	0	0	0	486	
0	0	0	0	0	485	
1	0	0	0	0	483	
2	0	0	0	0	482	
3	0	0	0	0	481	
4	0	0	0	0	480	
5	0	0	0	0	479	
6	0	0	0	0	478	
7	0	0	0	0	477	
8	0	0	0	0	476	
9	0	0	0	0	475	
10	0	0	0	0	474	
11	0	0	0	0	473	
12	0	0	0	0	472	
13	0	0	0	0	471	
14	0	0	0	0	470	
15	0	0	0	0	469	
0	0	0	0	0	468	
1	0	0	0	0	467	
2	0	0	0	0	466	
3	0	0	0	0	465	
4	0	0	0	0	464	
5	0	0	0	0	463	
6	0	0	0	0	461	
7	0	0	0	0	461	
8	0	0	0	0	460	
9	0	0	0	0	459	
10	0	0	0	0	458	
11	0	0	0	0	458	
12	0	0	0	0	459	
13	0	0	0	0	458	
14	0	0	0	0	458	
15	0	0	0	0	457	
0	0	0	0	0	457	
1	0	0	0	0	456	
2	0	0	0	0	456	
3	0	0	0	0	456	
4	0	0	0	0	456	
5	0	0	0	0	456	
6	0	0	0	0	457	
7	0	0	0	0	458	
8	0	0	0	0	459	
9	0	0	0	0	459	
10	0	0	0	0	460	
11	0	0	0	0	460	
12	0	0	0	0	462	
13	0	0	0	0	463	
14	0	0	0	0	465	
15	0	0	0	0	467	
0	0	0	0	0	469	
1	0	0	0	0	472	
2	0	0	0	0	475	
3	0	0	0	0	477	
4	0	0	0	0	480	
5	0	0	0	0	482	
6	0	0	0	0	484	
7	0	0	0	0	486	
8	0	0	0	0	488	
9	0	0	0	0	490	
10	0	0	0	0	493	
11	0	0	0	0	495	
12	0	0	0	0	497	
13	0	0	0	0	499	
14	0	0	0	0	502	
15	0	0	0	0	503	
0	0	0	0	0	504	
1	0	0	0	0	507	
2	0	0	0	0	509	
3	0	0	0	0	512	
4	0	0	0	0	514	
5	0	0	0	0	517	
6	0	0	0	0	519	
7	0	0	0	0	522	
8	0	0	0	0	525	
9	0	0	0	0	527	
10	0	0	0	0	529	
11	0	0	0	0	531	
12	0	0	0	0	533	
13	0	0	0	0	534	
14	0	0	0	0	536	
15	0	0	0	0	537	
0	0	0	0	0	539	
1	0	0	0	0	540	
2	0	0	0	0	541	
3	0	0	0	0	542	
4	0	0	0	0	542	
5	0	0	0	0	544	
6	0	0	0	0	545	
7	0	0	0	0	545	
8	0	0	0	0	546	
9	0	0	0	0	547	
10	0	0	0	0	548	
11	0	0	0	0	548	
12	0	0	0	0	549	
13	0	0	0	0	550	
14	0	0	0	0	550	
15	0	0	0	0	551	
0	0	0	0	0	551	
1	0	0	0	0	551	
2	0	0	0	0	551	
3	0	0	0	0	551	
4	0	0	0	0	551	
5	0	0	0	0	550	
6	0	0	0	0	550	
7	0	0	0	0	550	
8	0	0	0	0	550	
9	0	0	0	0	550	
10	0	0	0	0	550	
11	0	0	0	0	550	
12	0	0	0	0	550	
13	0	0	0	0	550	
14	0	0	0	0	550	
15	0	0	0	0	549	
0	0	0	0	0	548	
1	0	0	0	0	548	
2	0	0	0	0	548	
3	0	0	0	0	548	
4	0	0	0	0	547	
5	0	0	0	0	547	
6	0	0	0	0	547	
7	0	0	0	0	546	
8	0	0	0	0	545	
9	0	0	0	0	544	
10	0	0	0	0	543	
11	0	0	0	0	542	
12	0	0	0	0	542	
13	0	0	0	0	542	
14	0	0	0	0	541	
15	0	0	0	0	541	
0	0	0	0	0	540	
1	0	0	0	0	540	
2	0	0	0	0	540	
3	0	0	0	0	540	
4	0	0	0	0	540	
5	0	0	0	0	540	
6	0	0	0	0	540	
7	0	0	0	0	539	
8	0	0	0	0	538	
9	0	0	0	0	537	
10	0	0	0	0	536	
11	0	0	0	0	535	
12	0	0	0	0	534	
13	0	0	0	0	533	
14	0	0	0	0	532	
15	0	0	0	0	531	
0	0	0	0	0	531	
1	0	0	0	0	530	
2	0	0	0	0	530	
3	0	0	0	0	530	
4	0	0	0	0	530	
5	0	0	0	0	530	
6	0	0	0	0	529	
7	0	0	0	0	529	
8	0	0	0	0	528	
9	0	0	0	0	528	
10	0	0	0	0	528	
11	0	0	0	0	528	
12	0	0	0	0	527	
13	0	0	0	0	526	
14	0	0	0	0	525	
15	0	0	0	0	525	
0	0	0	0	0	524	
1	0	0	0	0	523	
2	0	0	0	0	523	
3	0	0	0	0	523	
4	0	0	0	0	522	
5	0	0	0	0	521	
6	0	0	0	0	520	
7	0	0	0	0	520	
8	0	0	0	0	520	
9	0	0	0	0	520	
10	0	0	0	0	520	
11	0	0	0	0	520	
12	0	0	0	0	520	
13	0	0	0	0	520	
14	0	0	0	0	519	
15	0	0	0	0	519	
0	0	0	0	0	519	
1	0	0	0	0	517	
2	0	0	0	0	517	
3	0	0	0	0	515	
4	0	0	0	0	515	
5	0	0	0	0	514	
6	0	0	0	0	513	
7	0	0	0	0	512	
8	0	0	0	0	512	
9	0	0	0	0	512	
10	0	0	0	0	511	
11	0	0	0	0	510	
12	0	0	0	0	510	
13	0	0	0	0	510	
14	0	0	0	0	510	
15	0	0	0	0	508	
0	0	0	0	0	508	
1	0	0	0	0	507	
2	0	0	0	0	506	
3	0	0	0	0	506	
4	0	0	0	0	506	
5	0	0	0	0	507	
6	0	0	0	0	506	
7	0	0	0	0	506	
8	0	0	0	0	505	
9	0	0	0	0	504	
10	0	0	0	0	504	
11	0	0	0	0	504	
12	0	0	0	0	503	
13	0	0	0	0	503	
14	0	0	0	0	502	
15	0	0	0	0	503	
0	0	0	0	0	503	
1	0	0	0	0	503	
2	0	0	0	0	504	
3	0	0	0	0	504	
4	0	0	0	0	504	
5	0	0	0	0	505	
6	0	0	0	0	504	
7	0	0	0	0	504	
8	0	0	0	0	504	
9	0	0	0	0	504	
10	0	0	0	0	503	
11	0	0	0	0	503	
12	0	0	0	0	502	
13	0	0	0	0	502	
14	0	0	0	0	501	
15	0	0	0	0	501	
0	0	0	0	0	500	
1	0	0	0	0	501	
2	0	0	0	0	502	
3	0	0	0	0	503	
4	0	0	0	0	503	
5	0	0	0	0	504	
6	0	0	0	0	504	
7	0	0	0	0	503	
8	0	0	0	0	504	
9	0	0	0	0	504	
10	0	0	0	0	504	
11	0	0	0	0	505	
12	0	0	0	0	504	
13	0	0	0	0	504	
14	0	0	0	0	504	
15	0	0	0	0	504	
0	0	0	0	0	504	
1	0	0	0	0	503	
2	0	0	0	0	504	
3	0	0	0	0	504	
4	0	0	0	0	503	
5	0	0	0	0	503	
6	0	0	0	0	503	
7	0	0	0	0	503	
8	0	0	0	0	504	
9	0	0	0	0	504	
10	0	0	0	0	504	
11	0	0	0	0	504	
12	0	0	0	0	504	
13	0	0	0	0	505	
14	0	0	0	0	504	
15	0	0	0	0	505	
0	0	0	0	0	504	
1	0	0	0	0	504	
2	0	0	0	0	504	
3	0	0	0	0	504	
4	0	0	0	0	503	
5	0	0	0	0	503	
6	0	0	0	0	503	
7	0	0	0	0	502	
8	0	0	0	0	501	
9	0	0	0	0	501	
10	0	0	0	0	501	
11	0	0	0	0	501	
12	0	0	0	0	501	
13	0	0	0	0	501	
14	0	0	0	0	502	
15	0	0	0	0	502	
0	0	0	0	0	502	
1	0	0	0	0	503	
2	0	0	0	0	504	
3	0	0	0	0	504	
4	0	0	0	0	504	
5	0	0	0	0	504	
6	0	0	0	0	504	
7	0	0	0	0	503	
8	0	0	0	0	504	
9	0	0	0	0	503	
10	0	0	0	0	503	
11	0	0	0	0	504	
12	0	0	0	0	503	
13	0	0	0	0	504	
14	0	0	0	0	505	
15	0	0	0	0	505	
0	0	0	0	0	506	
1	0	0	0	0	506	
2	0	0	0	0	507	
3	0	0	0	0	507	
4	0	0	0	0	507	
5	0	0	0	0	507	
6	0	0	0	0	507	
7	0	0	0	0	506	
8	0	0	0	0	506	
9	0	0	0	0	505	
10	0	0	0	0	504	
11	0	0	0	0	504	
12	0	0	0	0	504	
13	0	0	0	0	504	
14	0	0	0	0	504	
15	0	0	0	0	504	
0	0	0	0	0	504	
1	0	0	0	0	505	
2	0	0	0	0	505	
3	0	0	0	0	505	
4	0	0	0	0	505	
5	0	0	0	0	505	
6	0	0	0	0	506	
7	0	0	0	0	506	
8	0	0	0	0	506	
9	0	0	0	0	507	
10	0	0	0	0	507	
11	0	0	0	0	507	
12	0	0	0	0	507	
13	0	0	0	0	507	
14	0	0	0	0	507	
15	0	0	0	0	507	
0	0	0	0	0	507	
1	0	0	0	0	506	
2	0	0	0	0	506	
3	0	0	0	0	505	
4	0	0	0	0	505	
5	0	0	0	0	505	
6	0	0	0	0	504	
7	0	0	0	0	505	
8	0	0	0	0	505	
9	0	0	0	0	505	
10	0	0	0	0	505	
11	0	0	0	0	506	
12	0	0	0	0	506	
13	0	0	0	0	506	
14	0	0	0	0	506	
15	0	0	0	0	507	
0	0	0	0	0	506	
1	0	0	0	0	505	
2	0	0	0	0	505	
3	0	0	0	0	504	
4	0	0	0	0	504	
5	0	0	0	0	503	
6	0	0	0	0	503	
7	0	0	0	0	503	
8	0	0	0	0	503	
9	0	0	0	0	503	
10	0	0	0	0	503	
11	0	0	0	0	504	
12	0	0	0	0	503	
13	0	0	0	0	503	
14	0	0	0	0	504	
15	0	0	0	0	504	
0	0	0	0	0	504	
1	0	0	0	0	504	
2	0	0	0	0	505	
3	0	0	0	0	505	
4	0	0	0	0	505	
5	0	0	0	0	505	
6	0	0	0	0	505	
7	0	0	0	0	505	
8	0	0	0	0	504	
9	0	0	0	0	504	
10	0	0	0	0	504	
11	0	0	0	0	503	
12	0	0	0	0	503	
13	0	0	0	0	503	
14	0	0	0	0	503	
15	0	0	0	0	503	
0	0	0	0	0	503	
1	0	0	0	0	503	
2	0	0	0	0	504	
3	0	0	0	0	504	
4	0	0	0	0	504	
5	0	0	0	0	504	
6	0	0	0	0	504	
7	0	0	0	0	504	
8	0	0	0	0	504	
9	0	0	0	0	504	
10	0	0	0	0	504	
11	0	0	0	0	503	
12	0	0	0	0	503	
13	0	0	0	0	503	
14	0	0	0	0	503	
15	0	0	0	0	504	
0	0	0	0	0	504	
1	0	0	0	0	504	
2	0	0	0	0	504	
3	0	0	0	0	503	
4	0	0	0	0	503	
5	0	0	0	0	503	
6	0	0	0	0	504	
7	0	0	0	0	504	
8	0	0	0	0	504	
9	0	0	0	0	505	
10	0	0	0	0	505	
11	0	0	0	0	505	
12	0	0	0	0	504	
13	0	0	0	0	504	
14	0	0	0	0	504	
15	0	0	0	0	504	
0	0	0	0	0	505	
1	0	0	0	0	505	
2	0	0	0	0	504	
3	0	0	0	0	504	
4	0	0	0	0	504	
5	0	0	0	0	504	
6	0	0	0	0	504	
7	0	0	0	0	504	
8	0	0	0	0	504	
9	0	0	0	0	504	
10	0	0	0	0	504	
11	0	0	0	0	504	
12	0	0	0	0	504	
13	0	0	0	0	505	
14	0	0	0	0	504	
15	0	0	0	0	505	
0	0	0	0	0	505	
1	0	0	0	0	505	
2	0	0	0	0	505	
3	0	0	0	0	504	
4	0	0	0	0	504	
5	0	0	0	0	503	
6	0	0	0	0	502	
7	0	0	0	0	502	
8	0	0	0	0	501	
9	0	0	0	0	502	
10	0	0	0	0	502	
11	0	0	0	0	503	
12	0	0	0	0	503	
13	0	0	0	0	503	
14	0	0	0	0	503	
15	0	0	0	0	503	
0	0	0	0	0	504	
1	0	0	0	0	503	
2	0	0	0	0	504	
3	0	0	0	0	504	
4	0	0	0	0	503	
5	0	0	0	0	502	
6	0	0	0	0	502	
7	0	0	0	0	501	
8	0	0	0	0	500	
9	0	0	0	0	498	
10	0	0	0	0	495	
11	0	0	0	0	492	
12	0	0	0	0	489	
13	0	0	0	0	487	
14	0	0	0	0	484	
15	0	0	0	0	482	
0	0	0	0	0	481	
1	0	0	0	0	480	
2	0	0	0	0	480	
3	0	0	0	0	480	
4	0	0	0	0	480	
5	0	0	0	0	479	
6	0	0	0	0	478	
7	0	0	0	0	478	
8	0	0	0	0	477	
9	0	0	0	0	476	
10	0	0	0	0	476	
11	0	0	0	0	475	
12	0	0	0	0	474	
13	0	0	0	0	474	
14	0	0	0	0	473	
15	0	0	0	0	474	
0	0	0	0	0	474	
1	0	0	0	0	474	
2	0	0	0	0	475	
3	0	0	0	0	474	
4	0	0	0	0	473	
5	0	0	0	0	473	
6	0	0	0	0	473	
7	0	0	0	0	473	
8	0	0	0	0	472	
9	0	0	0	0	472	
10	0	0	0	0	470	
11	0	0	0	0	468	
12	0	0	0	0	466	
13	0	0	0	0	464	
14	0	0	0	0	463	
15	0	0	0	0	463	
0	0	0	0	0	463	
1	0	0	0	0	463	
2	0	0	0	0	464	
3	0	0	0	0	465	
4	0	0	0	0	467	
5	0	0	0	0	467	
6	0	0	0	0	467	
7	0	0	0	0	469	
8	0	0	0	0	470	
9	0	0	0	0	471	
10	0	0	0	0	472	
11	0	0	0	0	473	
12	0	0	0	0	475	
13	0	0	0	0	476	
14	0	0	0	0	478	
15	0	0	0	0	480	
0	0	0	0	0	480	
1	0	0	0	0	481	
2	0	0	0	0	483	
3	0	0	0	0	484	
4	0	0	0	0	485	
5	0	0	0	0	486	
6	0	0	0	0	487	
7	0	0	0	0	489	
8	0	0	0	0	491	
9	0	0	0	0	493	
10	0	0	0	0	495	
11	0	0	0	0	496	
12	0	0	0	0	499	
13	0	0	0	0	501	
14	0	0	0	0	503	
15	0	0	0	0	505	
0	0	0	0	0	508	
1	0	0	0	0	510	
2	0	0	0	0	511	
3	0	0	0	0	512	
4	0	0	0	0	513	
5	0	0	0	0	514	
6	0	0	0	0	515	
7	0	0	0	0	515	
8	0	0	0	0	516	
9	0	0	0	0	517	
10	0	0	0	0	518	
11	0	0	0	0	519	
12	0	0	0	0	520	
13	0	0	0	0	522	
14	0	0	0	0	523	
15	0	0	0	0	523	
0	0	0	0	0	523	
1	0	0	0	0	523	
2	0	0	0	0	523	
3	0	0	0	0	524	
4	0	0	0	0	524	
5	0	0	0	0	523	
6	0	0	0	0	523	
7	0	0	0	0	523	
8	0	0	0	0	523	
9	0	0	0	0	522	
10	0	0	0	0	522	
11	0	0	0	0	521	
12	0	0	0	0	522	
13	0	0	0	0	522	
14	0	0	0	0	523	
15	0	0	0	0	522	
0	0	0	0	0	522	
1	0	0	0	0	522	
2	0	0	0	0	522	
3	0	0	0	0	523	
4	0	0	0	0	523	
5	0	0	0	0	523	
6	0	0	0	0	523	
7	0	0	0	0	523	
8	0	0	0	0	523	
9	0	0	0	0	522	
10	0	0	0	0	521	
11	0	0	0	0	521	
12	0	0	0	0	521	
13	0	0	0	0	520	
14	0	0	0	0	520	
15	0	0	0	0	519	
0	0	0	0	0	519	
1	0	0	0	0	519	
2	0	0	0	0	518	
3	0	0	0	0	518	
4	0	0	0	0	519	
5	0	0	0	0	521	
6	0	0	0	0	522	
7	0	0	0	0	525	
8	0	0	0	0	527	
9	0	0	0	0	531	
10	0	0	0	0	534	
11	0	0	0	0	537	
12	0	0	0	0	542	
13	0	0	0	0	547	
14	0	0	0	0	551	
15	0	0	0	0	555	
0	0	0	0	0	559	
1	0	0	0	0	561	
2	0	0	0	0	563	
3	0	0	0	0	563	
4	0	0	0	0	560	
5	0	0	0	0	551	
6	0	0	0	0	540	
7	0	0	0	0	527	
8	0	0	0	0	511	
9	0	0	0	0	493	
10	0	0	0	0	473	
11	0	0	0	0	451	
12	0	0	0	0	429	
13	0	0	0	0	404	
14	0	0	0	0	378	
15	0	0	0	0	353	
0	0	0	0	0	325	
1	0	0	0	0	295	
2	0	0	0	0	264	
3	0	0	0	0	231	
4	0	0	0	0	196	
5	0	0	0	0	161	
6	0	0	0	0	124	
7	0	0	0	0	87	
8	0	0	0	0	49	
9	0	0	0	0	10	
10	0	0	0	0	0	
11	0	0	0	0	0	
12	0	0	0	0	0	
13	0	0	0	0	0	
14	0	0	0	0	0	
15	0	0	0	0	0	
0	0	0	0	0	0	
1	0	0	0	0	0	
2	0	0	0	0	0	
3	0	0	0	0	0	
4	0	0	0	0	0	
5	0	0	0	0	0	
6	0	0	0	0	0	
7	0	0	0	0	0	
8	0	0	0	0	45	
9	0	0	0	0	99	
10	0	0	0	0	150	
11	0	0	0	0	198	
12	0	0	0	0	247	
13	0	0	0	0	294	
14	0	0	0	0	340	
15	0	0	0	0	385	
0	0	0	0	0	425	
1	0	0	0	0	463	
2	0	0	0	0	499	
3	0	0	0	0	531	
4	0	0	0	0	559	
5	0	0	0	0	582	
6	0	0	0	0	600	
7	0	0	0	0	616	
8	0	0	0	0	630	
9	0	0	0	0	641	
10	0	0	0	0	651	
11	0	0	0	0	659	
12	0	0	0	0	666	
13	0	0	0	0	673	
14	0	0	0	0	679	
15	0	0	0	0	683	
0	0	0	0	0	686	
1	0	0	0	0	688	
2	0	0	0	0	688	
3	0	0	0	0	689	
4	0	0	0	0	688	
5	0	0	0	0	685	
6	0	0	0	0	683	
7	0	0	0	0	681	
8	0	0	0	0	680	
9	0	0	0	0	678	
10	0	0	0	0	676	
11	0	0	0	0	672	
12	0	0	0	0	669	
13	0	0	0	0	667	
14	0	0	0	0	664	
15	0	0	0	0	663	
0	0	0	0	0	660	
1	0	0	0	0	658	
2	0	0	0	0	657	
3	0	0	0	0	655	
4	0	0	0	0	654	
5	0	0	0	0	652	
6	0	0	0	0	651	
7	0	0	0	0	649	
8	0	0	0	0	647	
9	0	0	0	0	646	
10	0	0	0	0	646	
11	0	0	0	0	644	
12	0	0	0	0	644	
13	0	0	0	0	643	
14	0	0	0	0	642	
15	0	0	0	0	641	
0	0	0	0	0	640	
1	0	0	0	0	639	
2	0	0	0	0	638	
3	0	0	0	0	637	
4	0	0	0	0	635	
5	0	0	0	0	632	
6	0	0	0	0	630	
7	0	0	0	0	629	
8	0	0	0	0	627	
9	0	0	0	0	625	
10	0	0	0	0	624	
11	0	0	0	0	622	
12	0	0	0	0	621	
13	0	0	0	0	620	
14	0	0	0	0	618	
15	0	0	0	0	618	
0	0	0	0	0	617	
1	0	0	0	0	617	
2	0	0	0	0	616	
3	0	0	0	0	615	
4	0	0	0	0	614	
5	0	0	0	0	613	
6	0	0	0	0	611	
7	0	0	0	0	609	
8	0	0	0	0	607	
9	0	0	0	0	604	
10	0	0	0	0	603	
11	0	0	0	0	601	
12	0	0	0	0	600	
13	0	0	0	0	598	
14	0	0	0	0	597	
15	0	0	0	0	595	
0	0	0	0	0	594	
1	0	0	0	0	593	
2	0	0	0	0	592	
3	0	0	0	0	591	
4	0	0	0	0	590	
5	0	0	0	0	589	
6	0	0	0	0	588	
7	0	0	0	0	587	
8	0	0	0	0	586	
9	0	0	0	0	586	
10	0	0	0	0	584	
11	0	0	0	0	583	
12	0	0	0	0	582	
13	0	0	0	0	580	
14	0	0	0	0	578	
15	0	0	0	0	576	
0	0	0	0	0	574	
1	0	0	0	0	572	
2	0	0	0	0	571	
3	0	0	0	0	569	
4	0	0	0	0	568	
5	0	0	0	0	568	
6	0	0	0	0	566	
7	0	0	0	0	565	
8	0	0	0	0	564	
9	0	0	0	0	563	
10	0	0	0	0	562	
11	0	0	0	0	561	
12	0	0	0	0	560	
13	0	0	0	0	560	
14	0	0	0	0	558	
15	0	0	0	0	557	
0	0	0	0	0	556	
1	0	0	0	0	555	
2	0	0	0	0	554	
3	0	0	0	0	552	
4	0	0	0	0	551	
5	0	0	0	0	549	
6	0	0	0	0	547	
7	0	0	0	0	546	
8	0	0	0	0	545	
9	0	0	0	0	545	
10	0	0	0	0	545	
11	0	0	0	0	544	
12	0	0	0	0	544	
13	0	0	0	0	542	
14	0	0	0	0	541	
15	0	0	0	0	540	
0	0	0	0	0	539	
1	0	0	0	0	539	
2	0	0	0	0	538	
3	0	0	0	0	537	
4	0	0	0	0	536	
5	0	0	0	0	534	
6	0	0	0	0	532	
7	0	0	0	0	531	
8	0	0	0	0	529	
9	0	0	0	0	528	
10	0	0	0	0	527	
11	0	0	0	0	525	
12	0	0	0	0	523	
13	0	0	0	0	521	
14	0	0	0	0	519	
15	0	0	0	0	518	
0	0	0	0	0	517	
1	0	0	0	0	515	
2	0	0	0	0	515	
3	0	0	0	0	513	
4	0	0	0	0	511	
5	0	0	0	0	510	
6	0	0	0	0	508	
7	0	0	0	0	506	
8	0	0	0	0	504	
9	0	0	0	0	501	
10	0	0	0	0	499	
11	0	0	0	0	497	
12	0	0	0	0	496	
13	0	0	0	0	495	
14	0	0	0	0	493	
15	0	0	0	0	492	
0	0	0	0	0	490	
1	0	0	0	0	488	
2	0	0	0	0	487	
3	0	0	0	0	486	
4	0	0	0	0	486	
5	0	0	0	0	485	
6	0	0	0	0	484	
7	0	0	0	0	483	
8	0	0	0	0	482	
9	0	0	0	0	482	
10	0	0	0	0	481	
11	0	0	0	0	480	
12	0	0	0	0	478	
13	0	0	0	0	476	
14	0	0	0	0	475	
15	0	0	0	0	473	
0	0	0	0	0	472	
1	0	0	0	0	471	
2	0	0	0	0	470	
3	0	0	0	0	469	
4	0	0	0	0	468	
5	0	0	0	0	467	
6	0	0	0	0	467	
7	0	0	0	0	467	
8	0	0	0	0	467	
9	0	0	0	0	466	
10	0	0	0	0	465	
11	0	0	0	0	465	
12	0	0	0	0	465	
13	0	0	0	0	465	
14	0	0	0	0	464	
15	0	0	0	0	464	
0	0	0	0	0	464	
1	0	0	0	0	463	
2	0	0	0	0	463	
3	0	0	0	0	463	
4	0	0	0	0	463	
5	0	0	0	0	462	
6	0	0	0	0	461	
7	0	0	0	0	461	
8	0	0	0	0	462	
9	0	0	0	0	464	
10	0	0	0	0	466	
11	0	0	0	0	468	
12	0	0	0	0	470	
13	0	0	0	0	472	
14	0	0	0	0	474	
15	0	0	0	0	476	
0	0	0	0	0	478	
1	0	0	0	0	481	
2	0	0	0	0	483	
3	0	0	0	0	485	
4	0	0	0	0	487	
5	0	0	0	0	489	
6	0	0	0	0	492	
7	0	0	0	0	493	
8	0	0	0	0	495	
9	0	0	0	0	497	
10	0	0	0	0	499	
11	0	0	0	0	502	
12	0	0	0	0	504	
13	0	0	0	0	507	
14	0	0	0	0	510	
15	0	0	0	0	512	
0	0	0	0	0	515	
1	0	0	0	0	518	
2	0	0	0	0	521	
3	0	0	0	0	523	
4	0	0	0	0	526	
5	0	0	0	0	528	
6	0	0	0	0	529	
7	0	0	0	0	532	
8	0	0	0	0	533	
9	0	0	0	0	534	
10	0	0	0	0	535	
11	0	0	0	0	536	
12	0	0	0	0	538	
13	0	0	0	0	540	
14	0	0	0	0	541	
15	0	0	0	0	543	
0	0	0	0	0	544	
1	0	0	0	0	545	
2	0	0	0	0	547	
3	0	0	0	0	549	
4	0	0	0	0	551	
5	0	0	0	0	551	
6	0	0	0	0	553	
7	0	0	0	0	554	
8	0	0	0	0	555	
9	0	0	0	0	556	
10	0	0	0	0	557	
11	0	0	0	0	558	
12	0	0	0	0	558	
13	0	0	0	0	559	
14	0	0	0	0	559	
15	0	0	0	0	559	
0	0	0	0	0	559	
1	0	0	0	0	559	
2	0	0	0	0	559	
3	0	0	0	0	559	
4	0	0	0	0	560	
5	0	0	0	0	560	
6	0	0	0	0	560	
7	0	0	0	0	560	
8	0	0	0	0	561	
9	0	0	0	0	561	
10	0	0	0	0	562	
11	0	0	0	0	562	
12	0	0	0	0	562	
13	0	0	0	0	562	
14	0	0	0	0	562	
15	0	0	0	0	562	
0	0	0	0	0	561	
1	0	0	0	0	561	
2	0	0	0	0	560	
3	0	0	0	0	560	
4	0	0	0	0	560	
5	0	0	0	0	560	
6	0	0	0	0	559	
7	0	0	0	0	558	
8	0	0	0	0	557	
9	0	0	0	0	556	
10	0	0	0	0	554	
11	0	0	0	0	553	
12	0	0	0	0	553	
13	0	0	0	0	554	
14	0	0	0	0	553	
15	0	0	0	0	553	
0	0	0	0	0	553	
1	0	0	0	0	552	
2	0	0	0	0	552	
3	0	0	0	0	551	
4	0	0	0	0	550	
5	0	0	0	0	550	
6	0	0	0	0	549	
7	0	0	0	0	547	
8	0	0	0	0	547	
9	0	0	0	0	547	
10	0	0	0	0	545	
11	0	0	0	0	545	
12	0	0	0	0	544	
13	0	0	0	0	544	
14	0	0	0	0	544	
15	0	0	0	0	543	
0	0	0	0	0	543	
1	0	0	0	0	543	
2	0	0	0	0	543	
3	0	0	0	0	542	
4	0	0	0	0	541	
5	0	0	0	0	541	
6	0	0	0	0	540	
7	0	0	0	0	540	
8	0	0	0	0	539	
9	0	0	0	0	539	
10	0	0	0	0	537	
11	0	0	0	0	536	
12	0	0	0	0	536	
13	0	0	0	0	535	
14	0	0	0	0	535	
15	0	0	0	0	534	
0	0	0	0	0	533	
1	0	0	0	0	533	
2	0	0	0	0	533	
3	0	0	0	0	532	
4	0	0	0	0	531	
5	0	0	0	0	531	
6	0	0	0	0	531	
7	0	0	0	0	530	
8	0	0	0	0	529	
9	0	0	0	0	529	
10	0	0	0	0	528	
11	0	0	0	0	527	
12	0	0	0	0	527	
13	0	0	0	0	526	
14	0	0	0	0	526	
15	0	0	0	0	525	
0	0	0	0	0	524	
1	0	0	0	0	523	
2	0	0	0	0	522	
3	0	0	0	0	521	
4	0	0	0	0	521	
5	0	0	0	0	521	
6	0	0	0	0	520	
7	0	0	0	0	520	
8	0	0	0	0	520	
9	0	0	0	0	520	
10	0	0	0	0	519	
11	0	0	0	0	518	
12	0	0	0	0	518	
13	0	0	0	0	518	
14	0	0	0	0	517	
15	0	0	0	0	516	
0	0	0	0	0	515	
1	0	0	0	0	515	
2	0	0	0	0	514	
3	0	0	0	0	512	
4	0	0	0	0	512	
5	0	0	0	0	511	
6	0	0	0	0	511	
7	0	0	0	0	511	
8	0	0	0	0	511	
9	0	0	0	0	511	
10	0	0	0	0	511	
11	0	0	0	0	511	
12	0	0	0	0	511	
13	0	0	0	0	511	
14	0	0	0	0	511	
15	0	0	0	0	511	
0	0	0	0	0	511	
1	0	0	0	0	511	
2	0	0	0	0	510	
3	0	0	0	0	510	
4	0	0	0	0	509	
5	0	0	0	0	508	
6	0	0	0	0	507	
7	0	0	0	0	506	
8	0	0	0	0	506	
9	0	0	0	0	505	
10	0	0	0	0	505	
11	0	0	0	0	504	
12	0	0	0	0	504	
13	0	0	0	0	505	
14	0	0	0	0	506	
15	0	0	0	0	506	
0	0	0	0	0	507	
1	0	0	0	0	507	
